Condicao;Tempo_s;Ch1_HbO;Ch1_HbR;Ch2_HbO;Ch2_HbR;Ch3_HbO;Ch3_HbR;Ch4_HbO;Ch4_HbR;Ch5_HbO;Ch5_HbR;Ch6_HbO;Ch6_HbR;Ch7_HbO;Ch7_HbR;Ch8_HbO;Ch8_HbR
A;-20.0;0.8320850909539601;-1.9979870335326964;4.651880558899214;0.21264672400223095;-3.012909018988694;-3.0379524698747655;5.20491123828284;0.6448412530222285;3.1161209137333117;-2.8158241171160228;5.522776652363614;3.875302395015604;1.706838043589876;-0.002578423303335242;5.640391097009191;2.6507704507091936
A;-19.9;0.7626481103300833;-2.030510845463031;4.590613357198563;0.17987799680617034;-3.0351440786860433;-3.048360585615047;5.162739448887034;0.6091925650385157;3.0899638237844513;-2.8460468567310775;5.503785619724205;3.8564567968189216;1.6935446869664332;-0.02960532728607168;5.640272314802891;2.626421281100212
A;-19.8;0.6910330226972903;-2.066669927709986;4.526797761811533;0.14644449025828177;-3.057632334834322;-3.054136199066024;5.117418390875136;0.5735738181232062;3.0613264191628087;-2.8773638299635564;5.479889174436355;3.834247515757774;1.6794970340941342;-0.056216508797932496;5.643767145728194;2.6020902338879592
A;-19.7;0.6189317221877211;-2.103444017495969;4.459955255893837;0.11282005419123298;-3.080073314230402;-3.0541302507271695;5.068249460497773;0.5384086090655824;3.03098779602729;-2.908648918054527;5.451028265132312;3.8087559632853907;1.6643083592605326;-0.08269835405380888;5.649724745900325;2.57731366846658
A;-19.6;0.5466720759238441;-2.1392115727254954;4.389112888641854;0.07906164317754705;-3.1024929861515513;-3.0477798768690576;5.0155122466186395;0.5040457081989285;2.999295606870829;-2.9393165229038587;5.417044456503145;3.7800554193256133;1.6473879496570314;-0.10933626223247384;5.657039938220982;2.5516048346258406
A;-19.5;0.47434276349651405;-2.1721041596719393;4.312757188528865;0.04513945744049863;-3.125019286302104;-3.0337805548249044;4.959547027949858;0.4708819469206196;2.9666064217521466;-2.96869443372864;5.37763205744718;3.748174477894956;1.6279100831885147;-0.13653422682264482;5.664326422774845;2.5242908624873612
A;-19.4;0.40566472051095737;-2.199154842462774;4.2335412922705125;0.012141340363974074;-3.1468649745763333;-3.013347603836028;4.899356199720216;0.4391357793406945;2.9337880408425967;-2.99596160803807;5.333513952325086;3.713455221760153;1.6066898599123336;-0.16398022027143488;5.671737501955071;2.4957914719300813
A;-19.3;0.34448371741425454;-2.2180293445732313;4.1548965346146645;-0.0187714696878718;-3.1671405580683256;-2.9880351200537163;4.83409299728582;0.40894613689631765;2.901645657257596;-3.0205259220884075;5.285666380113414;3.6763691037438937;1.5848694751636465;-0.1912231041528294;5.679738869104276;2.4667737882182195
A;-19.2;0.2944423905470206;-2.225169518785816;4.078805014057018;-0.04658171331110861;-3.1851489386270657;-2.9541652401512337;4.762412669732267;0.3805274732235677;2.871088397361561;-3.041369154451841;5.234645284636063;3.637303335188694;1.5629094795161018;-0.21814887800031224;5.688181362608236;2.437439218396475
A;-19.1;0.2590898284029439;-2.217258681017833;4.0073518657588725;-0.0702829288235689;-3.2001973901848757;-2.910703902453694;4.6831720806184745;0.3541057217207513;2.8430119773535765;-3.057549460050713;5.181053242067794;3.596546005006055;1.5414755298622245;-0.24448585294259928;5.697141954197383;2.40808382624902
A;-19.0;0.23743657584757294;-2.1955975943107995;3.940375762712076;-0.09007616503544824;-3.2123332345684634;-2.8559166158609344;4.5978073675247035;0.32982862158956916;2.8173597527143457;-3.0693510118586333;5.125244673276848;3.554549280691126;1.5204412546624297;-0.27039529068455925;5.705794224077477;2.3785770473633603
A;-18.9;0.22686352713393276;-2.162773066095965;3.87653299654497;-0.10662953530954766;-3.2219163562851563;-2.7878186871067;4.5083085883889495;0.3077785113007341;2.793743568722281;-3.077372723213486;5.067383303400543;3.51169379367012;1.499640613137042;-0.29581060598335496;5.713781825796914;2.3488022611688626
A;-18.8;0.2262890297649296;-2.12084432714193;3.8163192013519307;-0.12010014844270955;-3.228976372484947;-2.7239718914366424;4.416987989228355;0.2882054875972324;2.7721021989021484;-3.082170189214496;5.007994629998114;3.4677473872416895;1.480201735339067;-0.3198346990575227;5.721874655929168;2.319234565358777
A;-18.7;0.2340052850939216;-2.0725330995280626;3.759950023381629;-0.13081116797429804;-3.2336391545931864;-2.6661341401329786;4.3265099008477055;0.2713391474375557;2.7522415817636308;-3.0844789939167603;4.947587599566148;3.4228383827066216;1.4622404301297989;-0.34260226922163595;5.728991551921287;2.289779055672901
A;-18.6;0.24826230009107597;-2.0190587527195505;3.70599209551839;-0.13926405399901487;-3.2362127535648444;-2.6084990105417223;4.237486432981292;0.25711118080987116;2.73391610463978;-3.0845140413390517;4.886252946448407;3.3768139014258836;1.4469923534135019;-0.3624370655585598;5.738034112345383;2.26123544023132
A;-18.5;0.26793247544350507;-1.960966977989814;3.6532922771226666;-0.1457979643954319;-3.2369376463510946;-2.5922954618568124;4.15018313968319;0.24546985105725927;2.7170146685684067;-3.0823231395915345;4.824089088641367;3.32957381355829;1.4352666639640725;-0.3781627655568207;5.751022489724619;2.234154904253932
A;-18.4;0.2900555618948317;-1.900542509947876;3.5996762213545637;-0.15125521711479628;-3.236284758603926;-2.5572912978860174;4.065724843865322;0.23629110490190186;2.701044086718463;-3.0783876836967314;4.761120065321901;3.283780578468292;1.421693615377495;-0.39495604203141355;5.758658882388821;2.205611420760836
A;-18.3;0.3116964584764279;-1.8399567320662977;3.5428986245242964;-0.15648381429767166;-3.234752334484808;-2.3269043389145683;3.985052769750329;0.22941609375315863;2.6855015702863057;-3.0731659522861685;4.697339486406918;3.2397187152604285;1.4045584040336765;-0.414093355267227;5.7586813089900435;2.174767862124766
A;-18.2;0.3332052514970538;-1.7799506566002496;3.4844155148144704;-0.16123702506632487;-3.2322403997016345;-2.1565738066267635;3.9102434007499465;0.22522747886510786;2.6706648757541807;-3.0669519143922725;4.633328678927626;3.19732128104636;1.380277000186191;-0.43992391514168494;5.742300317414368;2.139320043339236
A;-18.1;0.3555539831423342;-1.7212325554645282;3.4266720921954175;-0.16503359095080228;-3.2284747468149657;-2.085230833472685;3.8440268449107293;0.2242752310851781;2.6569792226519127;-3.0600936553635902;4.569868850849765;3.1628156712057436;1.3466693901029352;-0.47565957585772756;5.702386719449064;2.0975924701351145
A;-18.0;0.3796649056252175;-1.6636639109140328;3.3710892586555676;-0.16752440401035784;-3.2233926015601018;-2.0547675791442117;3.787335438583021;0.2267739417738346;2.6447522236864387;-3.052675857972212;4.507449054562979;3.1261786169344816;1.3285660028509474;-0.49547909524516687;5.684380969862193;2.0634644753086384
A;-17.9;0.4068270735092181;-1.606905094063681;3.319462032408522;-0.16824379961076552;-3.216879119508265;-1.9891122442529863;3.7411472045286995;0.23298322843091057;2.6343711802380785;-3.0447567450502886;4.446597853440023;3.0667192986403204;1.3265212990433186;-0.49930995212438356;5.687716224516123;2.0371075435280392
A;-17.8;0.4363989733188003;-1.5525691942548194;3.272745445465537;-0.16723173764632993;-3.208820315814929;-1.9089703292602875;3.708049896286571;0.24321759566257928;2.62590442347153;-3.0368586786997502;4.387654717414964;3.0056018137219898;1.3402801389709067;-0.4879720424919012;5.709692778172024;2.0179276433904105
A;-17.7;0.4671557076572057;-1.5024235892712436;3.231151969858171;-0.1647425535109921;-3.1992098432665976;-1.875723786768635;3.69013846147217;0.257619339164159;2.6192454362383426;-3.0294842355058096;4.33203990711883;2.9772160893438047;1.4345578428823007;-0.39340882622912776;5.871708500810342;2.042435212938991
A;-17.6;0.4989556306464973;-1.4579975308763968;3.1963212402260677;-0.1606273497423878;-3.187881958536371;-1.8562405279512388;3.6904474257131668;0.2766586236007056;2.6146041944288942;-3.0231298960887703;4.282102717789154;2.960384440051694;1.506794116873568;-0.32473724156461214;5.979102212235124;2.0529401451639915
A;-17.5;0.5315400971811464;-1.4207829302767858;3.1696954524797913;-0.15479378494498963;-3.174660805956396;-1.8120183031738177;3.7117443295629844;0.300724139324517;2.612134607635758;-3.0185137872725427;4.23018513339758;2.9223132999006527;1.3447820400768498;-0.5068255123351508;5.623355578884233;1.9268086154276463
A;-17.4;0.5645715927271784;-1.3903918656298826;3.150469166700004;-0.14744834274011254;-3.159846981945316;-1.7554492903042531;3.7524189900516856;0.32934609410240157;2.61162225731111;-3.015638707363058;4.174119966084207;2.8753891746003317;1.1638450420676651;-0.7117524342257195;5.2101694694357565;1.7850422340512804
A;-17.3;0.5979712513288931;-1.3657668200520847;3.137453842064419;-0.13878493489567578;-3.143895861733222;-1.703306334495804;3.8096809766999993;0.36187921008678003;2.6128204694923873;-3.013375257423804;4.150807744874211;2.8384436609003503;1.3142403492389576;-0.5687898595131498;5.430107516381729;1.8375975099416522
A;-17.2;0.630893648096178;-1.3464159583594437;3.129056013061126;-0.12924401512174732;-3.1269999516744704;-1.6602710417559559;3.8810024090373787;0.39755017008077864;2.615303586431173;-3.011843545114245;4.149686627441053;2.8079033091710954;1.576091044035567;-0.30947231597482094;5.863529120362957;1.957811102922749
A;-17.1;0.6624571626129185;-1.3315962269576702;3.123345011552411;-0.11931772808993468;-3.1094231351195383;-1.6321659150987005;3.9632131072513292;0.4354535811354774;2.6185820853534807;-3.0147180999982233;4.009814138782675;2.7786961083452075;1.6088511579244527;-0.29262855652712805;5.7505642784295645;1.902451004149921
A;-17.0;0.6929786488808176;-1.3206869789745728;3.1201608446159153;-0.10897001346341018;-3.091531500348502;-1.6167041023726423;4.055005430606416;0.47533866514536793;2.622625670456017;-3.01354602485683;4.077437562930815;2.7521651061227406;1.5365543003284072;-0.38694960246549615;5.587531123198676;1.854051086913679
A;-16.9;0.7228259749756649;-1.3132932178437131;3.1196965277295146;-0.09811378432125561;-3.0735609476664507;-1.6082662333131497;4.155671409004135;0.5170749514790423;2.6274612297664515;-3.016197341800556;4.025087186207028;2.7293198109509085;1.5506943306178984;-0.390060201682374;5.488528508938259;1.814455580324073
A;-16.8;0.7523880815962887;-1.3083213231736557;3.121346254169909;-0.08675251713713905;-3.0560907227720886;-1.6044108742384537;4.262842185599382;0.5602149224660327;2.6329801669143897;-3.019022509781287;3.9957307380786204;2.709190897022464;1.6070191492051729;-0.3481357705272261;5.480400874745733;1.8057982345533534
A;-16.7;0.7821255601860493;-1.3046900102687045;3.124616900220195;-0.0748573572789697;-3.039676023944512;-1.6024971028476536;4.374282376035136;0.6043591204167704;2.639103343774586;-3.022190683773575;3.9740289737822927;2.6908126327769857;1.6456511227314685;-0.32390946566917833;5.440883329852131;1.7900307344562927
A;-16.6;0.81113318549375;-1.3022985988303346;3.1284163425605023;-0.06285439051523056;-3.0240415445352262;-1.6023301877595246;4.4883392854366;0.648841318895931;2.645433471806525;-3.0255887791808265;3.961711824298364;2.6750697595225272;1.6811887557881056;-0.30160697401976133;5.400301401464795;1.7761332070285625
A;-16.5;0.83803668309133;-1.301193301444696;3.1312161207315796;-0.05135433682975421;-3.0087785251096193;-1.6046887954429234;4.603063671409197;0.6928013168975244;2.6514167657648873;-3.029399203743493;3.9492554102846906;2.6632850521875486;1.7249168287357062;-0.2688612308493674;5.374559015458936;1.7675797572724334
A;-16.4;0.8621975311516348;-1.3015622048341609;3.132577785429566;-0.04062165274571594;-2.9934999331874295;-1.6095112218656826;4.717886046197451;0.7358919423040318;2.656827615118816;-3.0335620327413926;3.9381259340619685;2.6559685034715077;1.768420303322416;-0.234525245874325;5.349356607030048;1.760033224295175
A;-16.3;0.8828637321403523;-1.3036989995373025;3.132045847209419;-0.03095600874254334;-2.97770311588169;-1.6166989324001122;4.832356593886015;0.7777579024564432;2.6614191565698793;-3.037972766501566;3.9319376941497115;2.6537619599604607;1.8040833959069111;-0.20665452962094033;5.313382491752469;1.7502297292505373
A;-16.2;0.899088298694215;-1.307140159895667;3.128000841182514;-0.022858523675767017;-2.96155199348353;-1.624929107831127;4.94372086458975;0.8174920829322136;2.6646671643849924;-3.0425908712877714;3.9299192922060797;2.657338823858188;1.832019330031093;-0.1844302852688462;5.269015151864776;1.7385876931208395
A;-16.1;0.9102245388298797;-1.3112858063887511;3.1190158651581683;-0.016716990803053555;-2.945427018511946;-1.6326849340565452;5.049261293975961;0.8542924842330617;2.6661320965066544;-3.0473695862899843;3.9315428679697746;2.6670124620620106;1.853379946298455;-0.1659319559214829;5.2208035693876855;1.7262701145654287
A;-16.0;0.9150767261016117;-1.3157422843548483;3.103283856084783;-0.013135463802594671;-2.929161907219422;-1.6383709630381187;5.146166727570121;0.8871588987373045;2.6652174640969495;-3.052184649598791;3.937185529372453;2.683769163968754;1.8678647696670012;-0.15082625048981413;5.171144926103115;1.7137023650739143
A;-15.9;0.9125370600679599;-1.3201190815104407;3.0790750092531365;-0.012678079526138752;-2.912726048465311;-1.6405322174652675;5.23170159040669;0.9151396945584054;2.6613554577908243;-3.0569507066436774;3.947002550688376;2.7084680660073754;1.8757517382375077;-0.13816739224562902;5.12334463370707;1.7016051598299566
A;-15.8;0.9030877288604486;-1.3244454728796953;3.0470605675950146;-0.015132648899037981;-2.896251569576741;-1.6394923824675809;5.306367436290815;0.9384934350753804;2.654727549154515;-3.061672583592487;3.9605588725115712;2.7403385241185667;1.8769927433085467;-0.12824247416278478;5.076590553438954;1.6897238105371457
A;-15.7;0.8876276909882144;-1.32891529580969;3.008643712119394;-0.02007734449265186;-2.8796602159338303;-1.636002161235253;5.3717593433589865;0.9578421915093536;2.6457382703856513;-3.0663255836491583;3.9773068277000334;2.7782502793637036;1.8714700489944551;-0.12176872078336931;5.028697684748708;1.677408315073799
A;-15.6;0.8669387799206216;-1.3335797125913786;2.964729994921994;-0.027161257512015702;-2.863775997240472;-1.6310254623264253;5.428552425988212;0.9735908357555028;2.6346546789773093;-3.0711066922016714;3.996603362167072;2.8209550038869633;1.8596187007580358;-0.11843746082292306;4.979727238055805;1.6648692928126787
A;-15.5;0.8420354618998118;-1.3385396451517355;2.916558572618623;-0.035921544503203506;-2.8494516981332083;-1.6257466032631953;5.477871693807597;0.9863186736273883;2.6218510886412556;-3.0762228627699413;4.017710296611014;2.8669597196388956;1.8421411592580528;-0.1177814508199786;4.929754905018827;1.652356088828131
A;-15.4;0.8133354839084639;-1.3438631900276112;2.8648928347882663;-0.04617843937344368;-2.836028103924294;-1.6199620393008143;5.520600909087497;0.9963187219499599;2.6075371108997984;-3.0814807669049946;4.040347961675932;2.9157789342383857;1.8198990146748324;-0.11942857583098698;4.87901549821099;1.639742311507167
A;-15.3;0.7810265238175038;-1.3495788874042174;2.810147697432777;-0.05786300360917185;-2.8228722772756605;-1.6132736844679645;5.557184378155489;1.003711761003978;2.59181371882757;-3.086700410125263;4.064330731211534;2.9671544819464115;1.7936485926315209;-0.12299160989969504;4.828030893364808;1.6269728152178973
A;-15.2;0.745893502226723;-1.3558523654512515;2.7536799372600615;-0.0706131363567506;-2.8091828197175843;-1.6057130669901696;5.589355584417266;1.0091052607321584;2.575078757015701;-3.091646849730897;4.089229684222046;3.0202393616459373;1.7647059367671876;-0.1278780781455584;4.776956231499988;1.6138970402227426
A;-15.1;0.7086893783063992;-1.362841504801314;2.6968067308657915;-0.08408442650032466;-2.7940776119053545;-1.5972412622724015;5.6188282819721636;1.0130856577921037;2.55771955892747;-3.096065801178459;4.114653347477896;3.0742574680256656;1.7343673270374307;-0.1335353401033328;4.725895138302313;1.6003303597017948
A;-15.0;0.6697765361729857;-1.3705685112023436;2.639700266123345;-0.09812191602264608;-2.778935534583729;-1.5888579504376779;5.645357997707492;1.015727344826951;2.5397800613110952;-3.1003456039329613;4.140083712505;3.1282440726429517;1.7024372707792423;-0.13995071618714894;4.674888318541801;1.5865937385974316
A;-14.9;0.6295480768096393;-1.379043228024539;2.5824092194190484;-0.11255264613004279;-2.765832033916933;-1.5819867748158227;5.668397497151446;1.0170759273665038;2.5212720001964986;-3.1050613443589175;4.164873333925668;3.180997396654093;1.6683913243749524;-0.14721087730867444;4.623907563300682;1.573152323966785
A;-14.8;0.5880956926667746;-1.3881819406662772;2.5247235532861225;-0.1273698001004533;-2.7557166566233526;-1.577111212603386;5.687280406159097;1.0169899777588434;2.502127163855704;-3.110481684513391;4.188734902861036;3.232038090361291;1.6318937069613302;-0.1554628007464638;4.57298243549117;1.5602024915019403
A;-14.7;0.5454541736791647;-1.3978874415343912;2.466288456749224;-0.1425941293777484;-2.7497657310091164;-1.5748157245219696;5.701125724074586;1.015265070411032;2.482235447998791;-3.116944479319927;4.211389845697232;3.2808998635650912;1.5924397403237007;-0.1649214268335637;4.52212285012636;1.5479931029611067
A;-14.6;0.5023433622766884;-1.4082252559478525;2.407850503210625;-0.15788987947669408;-2.749111412051784;-1.57610968435944;5.710486270902045;1.0123141813681729;2.461831467831935;-3.1247181816587526;4.232104387875639;3.326249501092695;1.5502814230341775;-0.1753290885560692;4.471391249003022;1.5367773753160705
A;-14.5;0.4595437476219164;-1.419248998857812;2.350356159245994;-0.17289766250857763;-2.754281860322857;-1.581638005616881;5.716279713843335;1.0086396172445102;2.4412150026291766;-3.133885464393945;4.250196528019925;3.3668718689919457;1.5060042215926321;-0.18631232524337404;4.4209040212728254;1.5266711479610986
A;-14.4;0.4177325588959473;-1.431065032208723;2.294360948871063;-0.18729443538439838;-2.767086780854253;-1.592907997495586;5.7187794022565015;1.0045830755599798;2.4205646681063655;-3.1449443772833936;4.264926901227545;3.4013330295283595;1.4595409376225668;-0.19771154984278283;4.370644835774245;1.5181138066459148
A;-14.3;0.37759493204754513;-1.4437500708540658;2.2404684429996475;-0.20075635463077734;-2.7890491993902593;-1.611191575284634;5.718353695828203;1.0005134514559053;2.4000782940194867;-3.1582938119740573;4.275574404118597;3.4282731208100907;1.410927692960339;-0.20933683348388676;4.3206253052627;1.5114704330724833
A;-14.2;0.3391893798517742;-1.4570894525018532;2.188745092940181;-0.21332615694422596;-2.8189507343852593;-1.6354761535478257;5.715094833519943;0.9963792870904262;2.3797935463411033;-3.1735509650578857;4.282233521388788;3.4480065521276932;1.3607280576718548;-0.22110130907605052;4.2710469608252275;1.5064463558540038
A;-14.1;0.30231941843114996;-1.4708144140759236;2.1389411671428835;-0.2251843755658287;-2.8551031770438016;-1.6643382333916783;5.708819377675301;0.9919292002708886;2.359651097438322;-3.190236999318997;4.285293634916156;3.4613645859863507;1.3094695214106133;-0.23301943228537914;4.222116225508181;1.502660145882134
A;-14.0;0.26709542354877236;-1.4845801378764922;2.0913709049546405;-0.2363585598553435;-2.8950687111018283;-1.6957208984136072;5.700019978653376;0.9872473706229759;2.339778129024042;-3.2075295364050938;4.284856313343523;3.4688950016595923;1.2581525875832824;-0.24486996745256429;4.174169806742235;1.4994792679742388
A;-13.9;0.23354697843991268;-1.4980021267661043;2.0462844813194216;-0.24692390652654606;-2.9360197368028302;-1.7272526822958492;5.6891808123852226;0.9823690107700154;2.320285247814031;-3.22449274706722;4.2811437823213225;3.471387280773733;1.2078657050688273;-0.2564389385781225;4.127569816436482;1.4961774180049634
A;-13.8;0.20153723349416097;-1.5109940714213965;2.0033255683254065;-0.2569982319857482;-2.977700287771743;-1.7587333871451039;5.67595266815329;0.977052668126456;2.301079211585458;-3.2411496836222726;4.2744540963746225;3.4692528792449915;1.1586473554638062;-0.26781825920953795;4.082352249646988;1.4927993429393585
A;-13.7;0.17100585707163596;-1.5235054870948708;1.9622040524868787;-0.26664885949163075;-3.0201895616646617;-1.7902355892979207;5.660031707465327;0.9711269950628205;2.282089593909827;-3.257616540496856;4.264976899203493;3.4626921869444995;1.1104371827983197;-0.2790886760523268;4.0385261343880305;1.4894759628936904
A;-13.6;0.14165385860707858;-1.535400637923336;1.9223750654506517;-0.276090748760053;-3.062848748198247;-1.821289482110724;5.640943594614416;0.9642143191291508;2.2631703422690475;-3.2738145856676635;4.253242007177727;3.452306392895009;1.0633506175114178;-0.2903918869214186;3.9961432405607615;1.4861518478272053
A;-13.5;0.11316632230189683;-1.5465697507362237;1.8832550081664916;-0.28553978676641734;-3.1051976861170765;-1.8515314987373168;5.618180901370616;0.9559294683629078;2.2441634252865406;-3.289726512638559;4.239792447794242;3.439587943610043;1.0174212356206551;-0.30188735532154354;3.9552284280806598;1.4828267923819665
A;-13.4;0.08585043850312601;-1.5566621551561974;1.8454395029729795;-0.2948965430339703;-3.1448785468808893;-1.8789503425812466;5.5925671673506585;0.9466172158855661;2.225303451674458;-3.304473592871801;4.224472723586089;3.4260254344683467;0.9736218208055831;-0.31326128496503314;3.9161334523778106;1.478860884186774
A;-13.3;0.060170312994648256;-1.5652197327856219;1.809860488404718;-0.30399420440935376;-3.178759475752388;-1.9007025567734912;5.565332981750121;0.9368084098341809;2.2069405687383483;-3.316838559628204;4.2069816590723494;3.405504107169863;0.9333174515522122;-0.32405349493972135;3.879333062534979;1.4733432676599634
A;-13.2;0.036421941154218374;-1.5720497374291185;1.7769967493851357;-0.31270383442086835;-3.2054581647515885;-1.9153630763926905;5.537164725814913;0.9268392306583122;2.1892643782013756;-3.3263102959234576;4.187140319630483;3.3763183028646875;0.8970743507628383;-0.3340175340787397;3.845039199825642;1.4659579922200865
A;-13.1;0.014958396389495476;-1.576944954629647;1.7474399012228972;-0.32086266639053473;-3.223446010321485;-1.921777772609956;5.5088907463594285;0.9171282233870253;2.172504968874561;-3.3323065720523335;4.164703578764657;3.36644520540763;0.8655211428450373;-0.3428639986433435;3.8134893997503485;1.4563390512635561
A;-13.0;-0.00401322531232573;-1.5795171193378237;1.7216519681013391;-0.32845313736271375;-3.230300537131267;-1.9171851993934617;5.481264664481607;0.9078821350620698;2.1568648827760892;-3.3338989007606283;4.139729106869757;3.368409238593995;0.8398145574828897;-0.35030698264486615;3.785044090368061;1.4437532339410115
A;-12.9;-0.020417865082441367;-1.579468582869401;1.6998239957834915;-0.33552010678442734;-3.224251603806424;-1.8997586773455852;5.4547453650966276;0.8991444262498716;2.1424547456409613;-3.330426709466126;4.1124330857785925;3.261048122676253;0.820855660546191;-0.3561700009643447;3.759959909672381;1.4276714175458176
A;-12.8;-0.03396079102064142;-1.5763303183597128;1.6826667696312363;-0.3419911995734637;-3.2021489139009987;-1.8687341857510198;5.430425054623196;0.891310824305175;2.129574114950362;-3.320677163500834;4.082759094275371;3.3071750551973373;0.8099955640626595;-0.3600710499880946;3.7386993071096883;1.4071460938244083
A;-12.7;-0.04438117730527935;-1.5696830103880832;1.6708003943359007;-0.3478111069656187;-3.1612207998117388;-1.8220539617586464;5.409302441421685;0.8847180859845905;2.118493430361541;-3.3035761489919704;4.050707221036555;3.2595075647005807;0.8084951541564616;-0.36166676947106247;3.7216770825261403;1.381328062948693
A;-12.6;-0.05180872882343479;-1.559757559512415;1.6637869277464077;-0.3530150150275686;-3.1028747985746996;-1.7635420156154735;5.391094277603159;0.879217796486909;2.1090913906607884;-3.279738263441242;4.016577019531116;3.2265920236914587;0.8157782327632281;-0.36110108748550473;3.7086696996877615;1.3507953658812801
A;-12.5;-0.05645964632424594;-1.5469490515548592;1.660981475762668;-0.3576356213665388;-3.0294005030140223;-1.6970482453436562;5.375290313295817;0.8746229677836839;2.1011759294304646;-3.2501586304085635;3.980694852907803;3.1969888545785707;0.8307455279002784;-0.35862842885613944;3.6993097723526867;1.3164677714700561
A;-12.4;-0.058568474543966076;-1.531668499015777;1.6615980863525017;-0.36177826412858316;-2.9438859315822725;-1.6148546481091355;5.361204210175158;0.8705190296100467;2.0945090244972384;-3.2160042159617;3.9435702947134796;3.171852822978959;0.8525488297531121;-0.35453766375362683;3.69319570088004;1.2792992844159767
A;-12.3;-0.05843516776639923;-1.5144241401781104;1.6646907556417148;-0.3655646441896163;-2.8494785242893474;-1.5217015478916371;5.3479600940855985;0.866417039280523;2.088792660879367;-3.178687311047808;3.9057633219393804;3.1436425664318506;0.8800687921839119;-0.3491907564098189;3.68982821198687;1.2404491223198557
A;-12.2;-0.0561543515721592;-1.4953783403761598;1.6700828794460278;-0.3689606879301719;-2.7457559933370614;-1.4168986606581138;5.335712199802298;0.8624721922665373;2.0840358531763066;-3.138497502289577;3.867444508587818;3.1134412898127577;0.9127204010348446;-0.34266340927542593;3.6891140572053356;1.2002650280986684
A;-12.1;-0.051760325080357106;-1.4746127989827618;1.6777561437474269;-0.3719178848171749;-2.636581741537128;-1.2689115090523533;5.324828427989399;0.8589163404835753;2.0803163327507157;-3.095514728614031;3.8287530673181145;3.083994246790567;0.9501866639838861;-0.33496681865414457;3.691054020613903;1.1588957189202338
A;-12.0;-0.04545446799598096;-1.4524330288285108;1.6873017159774921;-0.3744173615944577;-2.5242892609209733;-1.1294411256838632;5.315144891252409;0.8558090325187635;2.0775328348457567;-3.0503516613047292;3.7898805986517274;3.0545912729152978;0.9914094094045174;-0.32627646724867976;3.695385650680782;1.1169989121140798
A;-11.9;-0.03742796268116777;-1.429125775263579;1.698364052756622;-0.376431228756549;-2.392191916595168;-1.0944560208928724;5.306586793664852;0.8532587662781914;2.0756133711882896;-3.003556213773905;3.7510043909564956;3.024859055202281;1.0353669967833845;-0.3167541778855356;3.701879570702181;1.0751731554343864
A;-11.8;-0.02781582193619414;-1.4050267739877573;1.7103582382084639;-0.3780662671655044;-2.248199442138569;-1.060733056401034;5.2987638070698;0.8508792019663991;2.074423550923255;-2.95614231165984;3.712665997530145;2.995076134078782;1.081724844489572;-0.3066144640503996;3.710246369860027;1.0341117782129672
A;-11.7;-0.016788959134419912;-1.3805484904161078;1.722500329374963;-0.379485705037915;-2.1733101313928493;-0.9055726812338856;5.290980124806492;0.8480496842199177;2.0737357479440437;-2.909413917983464;3.675527458379417;2.965377724254557;1.130159867633549;-0.2961312961963465;3.7200820253579407;0.9946870233301573
A;-11.6;-0.004398867741221224;-1.355865055906719;1.7345423420065345;-0.38074742377294335;-2.002832337543845;-0.6360286958986805;5.283372927184615;0.844658621504764;2.073589882337293;-2.863909827303339;3.6400441119667573;2.936111136506409;1.1806746969587731;-0.2854120746111741;3.731327144685237;0.9571837406761363
A;-11.5;0.009311917679191595;-1.3311501673432082;1.746232164613975;-0.38192167351301;-1.8953837573296308;-0.5460885306867773;5.276066968623587;0.8405534634802398;2.0740271240033934;-2.820198087507806;3.606696891144095;2.907642329080245;1.2333636870223241;-0.27456581273163216;3.7439237907379024;0.9218700434357024
A;-11.4;0.024058726785517237;-1.3068607438585502;1.7567019389002638;-0.38314585154397296;-1.7860123859303165;-0.5219454693127057;5.2681352356111475;0.8351715672306952;2.0747087954304178;-2.779517078842253;3.5759714535631915;2.879905787825196;1.2873704937631176;-0.26388964574007545;3.757334118133937;0.8897427357430603
A;-11.3;0.0395415055176116;-1.2834135365951633;1.765174207561472;-0.3845244206282308;-1.6850989849254674;-0.4650460651253274;5.258767388491496;0.828092461880936;2.075321944517656;-2.742905737768627;3.5482513519531462;2.8528269337682746;1.3417170799085856;-0.25365354154634856;3.7710583006381104;0.8617090910202396
A;-11.2;0.055483408375962995;-1.2613253503293644;1.7706887160350124;-0.3862328232495651;-1.5964269340568311;-0.3944294975968692;5.246885044319418;0.8185930442607967;2.075499096414404;-2.7118537077091354;3.5241005813684705;2.82630568804643;1.395662794374796;-0.24419852549029564;3.784503759649155;0.8388481693670583
A;-11.1;0.071592383995009;-1.2410815592458442;1.772321998488902;-0.3884370037564233;-1.5289523400900311;-0.34041921301599576;5.231413357776482;0.8059933185341768;2.074863710572366;-2.6877197539813658;3.5040142661808833;2.8002248452376746;1.448427163587355;-0.2358456654617287;3.797081747019422;0.8221764358064966
A;-11.0;0.0878335155594332;-1.222598496374454;1.7703820658177492;-0.39105914934582664;-1.480593788101654;-0.2959087875081394;5.213254496052921;0.7908296211619446;2.0736747856989;-2.6700428398771194;3.48804638957974;2.775045540326902;1.4999333146317921;-0.2285371060714878;3.8090369358977485;0.8113446126800821
A;-10.9;0.10427699061806806;-1.2056386342617493;1.7655498600427642;-0.3939601414201812;-1.4467558560343274;-0.255776494816649;5.1939101353413974;0.7739559078741856;2.0724013455324535;-2.657918626302873;3.4761504257101628;2.7513962695970875;1.550442553499468;-0.22211373245800115;3.8208722735872693;0.8055859870006727
A;-10.8;0.12081360891104254;-1.1899920400291535;1.758237866778103;-0.3970267782838386;-1.4252422995452338;-0.2259078366892897;5.1742129298578465;0.7560521085272134;2.0712273509974946;-2.650351970778096;3.4681007784835955;2.729647961945407;1.5996633341123436;-0.2164331546935423;3.8328142424532485;0.8043476097061069
A;-10.7;0.1373674479611875;-1.1753685641847036;1.7490323387814204;-0.4001116800551685;-1.4128750622443036;-0.21151125143199057;5.155260298895946;0.7379669240273747;2.0704220953505406;-2.6460875219833797;3.4635994989312007;2.710243187064404;1.647393385147069;-0.21130072632255992;3.845202942723165;0.8068824637751362
A;-10.6;0.15398053592360128;-1.1617322676991892;1.7382662249349394;-0.403170915165286;-1.4085794863013614;-0.209700909117978;5.137902000250181;0.7200849865391827;2.070280479474169;-2.6449469766747074;3.46271328994116;2.6935336064040625;1.693917465797126;-0.20669411796637638;3.8582824181118185;0.8127847845276784
A;-10.5;0.17064245679153345;-1.1491177806927007;1.7260829992466498;-0.4062028324992344;-1.4121160315335572;-0.21626156578563194;5.122577302900659;0.7025711707459097;2.0709587698104723;-2.6469695836338722;3.4655009847463862;2.679708347813164;1.7394136912350575;-0.2026377412531679;3.8721345959330162;0.8218207768022793
A;-10.4;0.18749559757488576;-1.1373643528042825;1.7131522197462452;-0.40909773059303056;-1.4212886114989782;-0.22767282704571556;5.110789629775573;0.6861479883918413;2.072981944559169;-2.651614239071546;3.4720181469574793;2.6693635037480252;1.784405465816615;-0.19903095128405424;3.8872775913965696;0.8332685695449832
A;-10.3;0.2046800638763937;-1.1263261377480243;1.7001130576241223;-0.4117582102949848;-1.434060303069458;-0.2400692515608691;5.1039317456017255;0.6714713835854598;2.076843423037232;-2.658401308729049;3.48229624313727;2.663025538519701;1.829440774294504;-0.19578300644823843;3.904189829411247;0.846420583370866
A;-10.2;0.22190262758791768;-1.1158701374733528;1.6869686103763861;-0.41416061734539866;-1.448949503749434;-0.25309317714072144;5.101657424415437;0.6587187869110478;2.0822933150895597;-2.6664846863428844;3.4958537015702387;2.6605437771459997;1.8738422880533454;-0.19280295506381506;3.9226533616283477;0.8609985158786548
A;-10.1;0.23878072797142202;-1.1058158521930217;1.6736740379753279;-0.41626803081053954;-1.4641653168907691;-0.2672037993349283;5.1034473129763605;0.6481069473134848;2.0889770786848363;-2.6747490495794457;3.512094231207291;2.6617313077116336;1.9166176182521406;-0.1899687592972672;3.9423811683316314;0.8767475316887132
A;-10.0;0.2549948627200447;-1.096163705996922;1.6599804283510249;-0.41813159857339155;-1.4794724719093875;-0.2825720167197625;5.108341842908265;0.6394236303244103;2.096468977360736;-2.6828404172223;3.530508484577526;2.6661016617286117;1.9571413169561813;-0.18727547896384245;3.9629145552270617;0.8935970324581672
A;-9.9;0.27017958395021857;-1.0869159674969269;1.6455590362890131;-0.4198157852749089;-1.4947343054349602;-0.29951464044402165;5.1151172486295895;0.6323660034163563;2.1042391478415983;-2.690373250177097;3.5505039788233166;2.673046910452279;1.9946662608770431;-0.18471816363460025;3.983697654644468;0.9115276208847263
A;-9.8;0.28420615514253633;-1.0778352922481602;1.6308221783627683;-0.4211987274604141;-1.5075489052261766;-0.3159604645942524;5.124542998753435;0.6276216792423472;2.112443419480952;-2.696243487200907;3.5718356751268985;2.6829672846254162;2.028758193278576;-0.1821492434961276;4.004962190853486;0.9300287301025797
A;-9.7;0.29704981569790334;-1.0687082210955934;1.6162970732841604;-0.42214856304090276;-1.515650698092843;-0.3295365857224084;5.137748716298745;0.6259490140964301;2.121404081092736;-2.699535444514062;3.594401844458984;2.696398242627364;2.0592670599890788;-0.17944018804963502;4.027082704722855;0.9485383922565681
A;-9.6;0.3084793913726944;-1.059237091127181;1.6022870166223004;-0.4225601733203721;-1.5162900409455187;-0.3382157879653054;5.154902991701762;0.6278754437650704;2.131025774306856;-2.69884597739897;3.617662708307911;2.7134347485000427;2.0854954738858673;-0.17639785544171938;4.05008924036369;0.9665578028219396
A;-9.5;0.31832239657295247;-1.0491453610534665;1.5891465174007031;-0.42231949719108286;-1.5068927456668728;-0.34003499289944905;5.176395690889343;0.633976981786101;2.141312378504024;-2.692893098380785;3.6411948269268546;2.734281463239486;2.106858973637924;-0.17284576363053716;4.07410073946375;0.9836066053014342
A;-9.4;0.3265588597937139;-1.0386057503926782;1.5767618404062063;-0.42151251228437125;-1.4886112575733055;-0.3356226207553892;5.201730519904711;0.6438827876585744;2.1521569879696827;-2.6822750687334027;3.6648374056301307;2.7584975297679186;2.123644172607383;-0.16889886630341167;4.098862421164862;0.9996321059503027
A;-9.3;0.33314765651036815;-1.0278981830962786;1.5647774117226891;-0.420309431569863;-1.4635708231937414;-0.32653025793856205;5.229633632868115;0.6567612557810394;2.1632191208066995;-2.668006327513858;3.6882870634085574;2.78517325062131;2.1362643242185637;-0.16473517356583534;4.123834096104263;1.0147286422687174
A;-9.2;0.3383309189410788;-1.0172911079050069;1.5533407282768312;-0.4187385499795031;-1.4336458253587292;-0.313488266503529;5.260859524942044;0.6725860458981572;2.174918329358496;-2.6512066328691217;3.712016361159348;2.8145395605074404;2.1454665510264626;-0.16054703264379322;4.14923828031867;1.0289308806936828
A;-9.1;0.34237850884300514;-1.0071124731204297;1.5425410987291208;-0.4168547446436275;-1.401235246232119;-0.2975709385117069;5.29604616688782;0.6912000054576835;2.1876632257094712;-2.633263424561248;3.736532781935649;2.8467353820360835;2.1521337724071428;-0.15656593724370182;4.175250404437467;1.0423278982592903
A;-9.0;0.345118188875718;-0.9974256413662732;1.53201370453624;-0.4148108525813585;-1.366885053412945;-0.2796588423431503;5.3331581795466665;0.7116842181650576;2.2007546026809734;-2.6142789103171706;3.7609828419129094;2.880465971611926;2.1562399304818927;-0.15281425383094138;4.201129659777129;1.0549068462532776
A;-8.9;0.3463995839466598;-0.9882224275416767;1.5215038218343224;-0.41271768278636856;-1.3305764836944771;-0.2602616686435679;5.370411720631724;0.7332942597523804;2.2135604014867845;-2.59407178887143;3.7845388786977896;2.9146086945870504;2.1576626467431312;-0.14926839493098232;4.226257550595277;1.0666291813425928
A;-8.8;0.3459965008172752;-0.9796723609741056;1.510415430118048;-0.4108063723046733;-1.2938508002214721;-0.24093331173672006;5.405137208267561;0.7547403156374513;2.2251902565840265;-2.573199167300264;3.8062211163051813;2.947462270719077;2.156495526951585;-0.14601904056482518;4.249616902806306;1.0775424635539452
A;-8.7;0.34368291874778656;-0.9719148392803114;1.4981556623594994;-0.40930542241766066;-1.2580805304142402;-0.22319205673703646;5.434552323746907;0.7747041337247911;2.2347065247487485;-2.5521138658688924;3.82498398095354;2.977269581195051;2.152793766163904;-0.14313443235991397;4.2701725386660225;1.0877013337489343
A;-8.6;0.3399486604244295;-0.9651023684802116;1.4853250258437196;-0.40809063554353653;-1.2243012503282333;-0.20696349026107885;5.460946157964541;0.7938517415407818;2.243074908749197;-2.53159515548347;3.8418438950940246;3.0052015772871252;2.147353252123115;-0.14074528904632322;4.288804105453979;1.0971798518382232
A;-8.5;0.33546539732229874;-0.9594533685061633;1.4727874794500622;-0.40696341170243056;-1.1940147305271935;-0.19192877181741608;5.487990878258978;0.8133419385573513;2.2517981797762836;-2.512802637523194;3.8584350386898656;3.0332015339541583;2.1412583288389415;-0.1390448837201852;4.306868242729691;1.1060536434990111
A;-8.4;0.3306892948384288;-0.9549405235450728;1.4611883105034575;-0.40577738146023723;-1.1670565177564054;-0.1775951755429661;5.517455531466986;0.8337683235374804;2.2616004823384444;-2.495833691091102;3.8753984118261524;3.062190453089122;2.135039187099969;-0.1380309528474455;4.325162101408607;1.1143671103385213
A;-8.3;0.3261619056044456;-0.9515256543787509;1.4513102624409395;-0.40434243679864323;-1.14311092809041;-0.1632797469910683;5.551667040207253;0.8559486876641405;2.2734130638974133;-2.4807608200599693;3.8936009745653717;3.0934200474253792;2.12929459819998;-0.13769996598403766;4.344702015109955;1.122177823337512
A;-8.2;0.32215540058757774;-0.9495030919981633;1.4433447694664192;-0.4026567413294737;-1.1247319477287565;-0.1495306890393584;5.591930755380806;0.8800811356663063;2.2878637767364705;-2.4690527605691557;3.913764175992144;3.127421332235322;2.1248453905043414;-0.13828125741502184;4.36584737557808;1.1294822255846788
A;-8.1;0.3187527543211761;-0.9491341253229337;1.4371970385893107;-0.4008016948031914;-1.1144747376713013;-0.13716238087645838;5.63824878485573;0.9058812874970368;2.3050818186835045;-2.462050073678834;3.9360418729852373;3.1639717396129043;2.1222972007000545;-0.13996847212846975;4.388471219539324;1.1362387818606439
A;-8.0;0.31648841648778436;-0.950735129410107;1.433406130453161;-0.39866434056431554;-1.1146378402033985;-0.12647279591795701;5.693514154240727;0.9341264020663962;2.3263043444691807;-2.4612465162028387;3.961881634947;3.204548219220091;2.1227318024541466;-0.14302297789698626;4.413547430960021;1.1425529845237665
A;-7.9;0.3157784972702178;-0.9546090573030805;1.4323577870296145;-0.39617272959670036;-1.1274928336301588;-0.11781628836132096;5.760015683862559;0.9653871017942155;2.3525306314914456;-2.4680688476818933;3.9924551899054865;3.2502742929525485;2.1271084453648568;-0.1476934369363434;4.441797801431069;1.1484761600169122
A;-7.8;0.3165055835635613;-0.9604676841561965;1.4338960864834238;-0.39340018191811765;-1.1516726924205027;-0.11112766678576236;5.835276374156745;0.9987889419595026;2.382821653059393;-2.481574349214786;4.026438555937638;3.299672767655087;2.1350975013238314;-0.15375303105709826;4.472534439433341;1.1539343707079879
A;-7.7;0.3185651696224987;-0.9678344431074128;1.437934460197102;-0.3903872811901943;-1.1841964679378947;-0.10604545309561164;5.916331055626795;1.033378125722023;2.416013704948554;-2.4999368641997934;4.062183501994571;3.351066969390816;2.1461057312066503;-0.16083303683369188;4.505038194785885;1.1589102408503793
A;-7.6;0.32126928695825896;-0.976405306868894;1.443592381007317;-0.3874086394178127;-1.223915622700959;-0.10279361337003579;5.997987780024696;1.0673409209885092;2.450103344456833;-2.522090939652932;4.097129329627698;3.401365113104463;2.1592730986238315;-0.16868092342232988;4.53744568079008;1.1630416467476872
A;-7.5;0.3238521692966927;-0.9857923291407955;1.4499025885956591;-0.3847610535931043;-1.2693001468421663;-0.1015493028505583;6.074364718476952;1.0986523859057913;2.482806408540398;-2.546695682832535;4.128361615078582;3.447100691222145;2.1735557703444712;-0.17697682082009836;4.56768598484925;1.1659510560130157
A;-7.4;0.3266876428677534;-0.9956781289582026;1.4573430912168295;-0.38229232323679163;-1.3170751855189256;-0.10181888562162555;6.145736679732099;1.12747695212086;2.5142217513770593;-2.5721207919284437;4.155837235750127;3.488524900779499;2.1889429998209335;-0.18550137295878244;4.596197051387194;1.167877602722099
A;-7.3;0.33016348754498637;-1.0058468770797568;1.4663958013519611;-0.37983886839033065;-1.364255689728612;-0.10316242424611488;6.21301125911582;1.1541852869107405;2.544697880411709;-2.5969715866554983;4.179862215837202;3.526239936043841;2.2055557025756825;-0.19411971922798976;4.623544787323636;1.16904748119167
A;-7.2;0.33469702332768847;-1.0157993288221303;1.477610812616554;-0.3772358636826745;-1.4074473210696148;-0.10490543857703472;6.275816077415335;1.1787605817281879;2.574064308283722;-2.6194178568938495;4.200004310100468;3.560172735176349;2.223201985311891;-0.20246706165607575;4.650114246920414;1.1697577589861679
A;-7.1;0.34075019069990553;-1.0250558424484022;1.4915928290051017;-0.37429175235785905;-1.4430521716563138;-0.10634082465153227;6.334207048591534;1.2013463278892695;2.6023112814594196;-2.6375757473330506;4.216048627510174;3.5905172925876796;2.241732796878635;-0.2101993870532719;4.676428342427514;1.1703385024515875
A;-7.0;0.34725893353735593;-1.0335679215023967;1.506959026371696;-0.37138651643828435;-1.4710832064221222;-0.1079602901366945;6.382872604534759;1.2200778355515016;2.627380082241162;-2.6510358058698626;4.225537352778847;3.6140516994704335;2.260241324512858;-0.21727108390027894;4.700156015668476;1.170173530995824
A;-6.9;0.3527009250817361;-1.0413333869591543;1.5217278049887053;-0.36908916294851046;-1.4933179489886026;-0.11059239955387579;6.4143254830657135;1.2322884444852509;2.646378626230293;-2.66006070711211;4.22503198842408;3.626199940077341;2.27752004605997;-0.22365402759055275;4.717999353324561;1.1683640631732026
A;-6.8;0.35629868736579695;-1.0484443244263;1.5348601942687594;-0.3676366755549285;-1.5087696803659032;-0.11464088014049079;6.425685052351234;1.2369798715498037;2.658182275025256;-2.664027347129708;4.213307691908897;3.6252183623060645;2.2930007386585434;-0.22943726054084213;4.728429616863395;1.164483060174046
A;-6.7;0.3571104461824959;-1.055053515249797;1.5451016938331374;-0.36732150120540386;-1.5167739257267563;-0.12063053594228279;6.413648339260423;1.2329996460236101;2.661501031678444;-2.662458077733117;4.188983557391948;3.60909431881794;2.306038326514388;-0.23475485190552225;4.729644660150216;1.1580049285280114
A;-6.6;0.3543373060778805;-1.0608582195916374;1.5513766923025951;-0.3684911152309267;-1.5201546534504438;-0.12889407321157265;6.372349924660176;1.2182717894733832;2.6540674698933167;-2.6560715775077357;4.149211546555538;3.5743052186414683;2.3157438135378747;-0.23934506854134519;4.719499378496229;1.1484629474684436
A;-6.5;0.3476126603800971;-1.0654707873059883;1.5531532137696349;-0.3713354438265819;-1.521392323651849;-0.13949656713437175;6.297575640779078;1.1913188871284843;2.6342492333923797;-2.6455080387517054;4.091872000574622;3.518366567355966;2.3214870973912687;-0.24289092366550946;4.696672821491467;1.1356605983978685
A;-6.4;0.33558650378513555;-1.0687129308768637;1.5486638523935135;-0.3763794677328516;-1.523296101230697;-0.1530475902218731;6.1817744599557845;1.1494887284747604;2.599107970974126;-2.6314094578924587;4.01341345603738;3.4367199033865647;2.3220158501412484;-0.24521874784206865;4.6580725601867385;1.1188092222819543
A;-6.3;0.3171467107035557;-1.0703648239212913;1.5364257641741403;-0.3840760036677766;-1.5291198925854577;-0.17006328001729365;6.018185463278488;1.0903971181255532;2.5460154386404383;-2.6146620633853734;3.910633279300386;3.3252915403774352;2.3162481072607504;-0.24612349767246489;4.601026491560116;1.0972581773381853
A;-6.2;0.29302152953323635;-1.070404354630751;1.5172753487311237;-0.3940727708411913;-1.5358588551089092;-0.19008912509315934;5.811005433173573;1.0156090569678078;2.476559220773268;-2.594172178099993;3.785589852495182;3.1867543437133996;2.3046503589008065;-0.24565909791578733;4.527139737687616;1.0715435639390418
A;-6.1;0.26416168303669707;-1.0689734348610638;1.4923407497959307;-0.40586569211312007;-1.5376815719957442;-0.2125145763762193;5.567034363065455;0.9276595666991385;2.3933091126639052;-2.5678119087178786;3.641665935774398;3.0253869599940275;2.2879460482433274;-0.2440380887153668;4.438806129758548;1.0423702843265334
A;-6.0;0.23236960701283138;-1.0658170603867996;1.4637448035658327;-0.4188019509489376;-1.5340459234107229;-0.2365131930121276;5.293496307730624;0.8291043292669711;2.2990617819903925;-2.535744317041277;3.4821977246650775;2.845699548954083;2.2673715242853394;-0.2411296927465072;4.339408148266205;1.0108745974916924
A;-5.9;0.19971517402502137;-1.0607073710245087;1.4339464505518222;-0.43211241090149155;-1.5238936941068655;-0.2610306815192498;4.999208686210819;0.7230747585520643;2.1972248291747203;-2.4980234492937363;3.3112882593707127;2.653186410600023;2.2443830524072244;-0.23683932619721748;4.232952060327495;0.978366560842198
A;-5.8;0.16597048604157116;-1.0539369671066687;1.402610979621068;-0.4456969371815136;-1.501002322324565;-0.2858417256649366;4.686622782270698;0.6106191994598564;2.0886429297282554;-2.4520856511388214;3.1303822056083934;2.449464129956292;2.218834783044766;-0.2314620493583286;4.1196711356341655;0.9448402589217316
A;-5.7;0.13070766617810392;-1.0457551445009545;1.3691350759889733;-0.4595667985224141;-1.4604361175078946;-0.31158262544103543;4.356709459332109;0.49223757424163317;1.9735933253833533;-2.3958331523637852;2.9402028913688394;2.235226610706844;2.190420972320915;-0.22523636933836455;3.9992706423575806;0.9101407047433921
A;-5.6;0.0939176635950254;-1.0365828678053295;1.3334874198749436;-0.4734693347026173;-1.39518300368319;-0.33813550370428036;4.014279456060498;0.3698628704595155;1.8538126805837134;-2.326434071649958;2.7433890031266106;2.0135654785920476;2.159198136443263;-0.21859639769006778;3.8727224185669202;0.8744457946056665
A;-5.5;0.05545727091995367;-1.0268682802011972;1.2954675477652433;-0.48719925372067063;-1.2982007254479253;-0.3626136771432602;3.6637179144362317;0.24528413911934877;1.7308652635043025;-2.2415551528795428;2.542395936034982;1.7873078002278113;2.125136136164503;-0.21199036159997187;3.740769521593348;0.8378476434460852
A;-5.4;0.017362470891704618;-1.01609646119124;1.2573936988400405;-0.50019479397917;-1.17528858611648;-0.385068522947579;3.3105140885769284;0.12030841103866852;1.6069187060859953;-2.144794425291744;2.339585103243426;1.5598357779759198;2.0896240396441144;-0.20501972414936187;3.6066636371846528;0.8015031103883595
A;-5.3;-0.01750726108432943;-1.0034879413822666;1.2225708818501886;-0.5116970060052237;-1.0367568255195483;-0.41611685799609344;2.961615518796716;-0.0028385496860021675;1.4847562475298552;-2.0373749358730606;2.137837930546917;1.3354071665634208;2.0545975563579386;-0.1970727854689871;3.474831401172949;0.7670203523777382
A;-5.2;-0.04794857643598327;-0.9886384190129349;1.192279782018085;-0.5214382857433524;-0.8872955878722966;-0.4304503011196381;2.61945267258346;-0.12339465544564288;1.3653276331688993;-1.9204817792137447;1.9381429448550094;1.1155140436604682;2.0208605302811637;-0.18779749520102484;3.347011533114515;0.73503348384827
A;-5.1;-0.07255792535113414;-0.9710457070993144;1.1680258219047754;-0.529132178592632;-0.7330858791023438;-0.4512573565428468;2.286411839294651;-0.24065712610078283;1.2495827488881268;-1.8134036377705733;1.7414038784894963;0.9016031957217816;1.9893512862842506;-0.17675182775839993;3.2251407809876897;0.7062599457948516
A;-5.0;-0.08925101709501071;-0.950379122890809;1.1522807518868419;-0.534066549200193;-0.5824070062131366;-0.4673271256713978;1.9702181656082836;-0.3519399955082534;1.1405273960018505;-1.7156345846310792;1.5511611433719494;0.6985009330219416;1.9614783831888971;-0.16375287202847355;3.1130183603533776;0.6820056220147035
A;-4.9;-0.09660972445920102;-0.926555904818581;1.146744827855608;-0.5356588223181431;-0.44123080900049594;-0.4790113266904905;1.6778343087560241;-0.45472604467369937;1.0408234091917699;-1.558860863807297;1.3707542789344895;0.5106001784644736;1.9381954930241951;-0.1488303383212335;3.0135951349737686;0.6632416177839855
A;-4.8;-0.09177142768490931;-0.8989770722994326;1.154779444368554;-0.5330698980556745;-0.3203289201939441;-0.4851545076081649;1.417879695121444;-0.5461461115624129;0.9538754213051615;-1.5023607100361938;1.2039640007639996;0.3432159655832496;1.9214763044196905;-0.13156378403285585;2.9316557803023096;0.651624163450709
A;-4.7;-0.07221902304753591;-0.8671579704364256;1.1793541442688493;-0.5255287056367859;-0.23020800473024572;-0.4855019586948224;1.1984660699007694;-0.6234606326556049;0.8828693255592093;-1.4058414413633882;1.0544061606694513;0.20137608257858375;1.913037533904344;-0.11163709375470399;2.8715210039045025;0.6486396136093091
A;-4.6;-0.03943973987499483;-0.8315283466731005;1.218570162187227;-0.5134166459002172;-0.16742011633786902;-0.4803953436018533;1.0170924552772114;-0.6873279300277648;0.8266711837608298;-1.33140675320068;0.9212691215216928;0.08362849780436044;1.9118405018884665;-0.08937001012501566;2.8311027732256786;0.6534590447991038
A;-4.5;0.0042603393267910405;-0.7926404750928642;1.269483491213709;-0.4974273061462666;-0.12452640075804489;-0.47040590647645697;0.8682105845469756;-0.7394621987125181;0.7829331549385827;-1.2688302784114391;0.8023715439690058;-0.013386829221833096;1.916313079263685;-0.0651295609064313;2.806798901571417;0.6646963342453901
A;-4.4;0.055955219615022145;-0.7514131833515139;1.3285867245531477;-0.4781873832356549;-0.09720454560722303;-0.4563160808960527;0.7474999296954117;-0.7809344732647148;0.7497250397300199;-1.2168205837213364;0.6963707344631089;-0.09211110699479619;1.9243160217356357;-0.039698857892372263;2.7946538430374974;0.6808615688841798
A;-4.3;0.11214248407443428;-0.7089021268746016;1.391677870271124;-0.45648846319294734;-0.0793633272153329;-0.43908068714810167;0.6491398819159944;-0.8132958350045438;0.7245059494805144;-1.168153432179663;0.601299700854101;-0.15590323842506493;1.933318405955875;-0.013955799626030219;2.78980138919657;0.7001332292567065
A;-4.2;0.17240937699274816;-0.6651242965503608;1.4580167551438308;-0.4326439019751209;-0.06720445231107952;-0.4190435840751485;0.5709187871441088;-0.8373620705183944;0.7063377230914618;-1.121554482665089;0.5161839413596887;-0.2061896743979439;1.9431252839503568;0.012168623590897765;2.791261051014355;0.7220235100709614
A;-4.1;0.23686020662098528;-0.6199871158614529;1.5275070733343252;-0.4068158365032293;-0.059239974722261834;-0.39637125408793583;0.5120302400709722;-0.8535013509091387;0.6948561733480574;-1.0777954199651223;0.4406407980286975;-0.24353062126646208;1.9538775320065431;0.03880118770588892;2.798875491400422;0.7463405835495488
A;-4.0;0.30433301393046186;-0.5736378381566483;1.5984806436647627;-0.37956983260127775;-0.048955612283053895;-0.3717395241421597;0.4677727550915751;-0.863368088297884;0.6881264257128024;-1.0332668562283365;0.3725874589041869;-0.270917248022851;1.964926399370837;0.06597607411460005;2.8104032918681;0.772144373041722
A;-3.9;0.3738671381559442;-0.5261631950970744;1.6695006704714572;-0.3514437262810848;-0.030060108481601233;-0.34578894818943784;0.4336837458661371;-0.868573120315995;0.6843215495550528;-0.9846426637341086;0.31000926925479;-0.2912109258608009;1.9757678314470946;0.09377289412902146;2.8238457308110045;0.7985718747485943
A;-3.8;0.44287447584649264;-0.4785231041116047;1.7376282063908786;-0.3228498383471168;-0.004535863544866459;-0.3189568035669943;0.40760364418453854;-0.8694034800902113;0.6823711091213074;-0.9330744627517964;0.25260742473911435;-0.30543350951402104;1.9843624135166484;0.1212499778701579;2.8360493509762446;0.8244425752633301
A;-3.7;0.5078752744423181;-0.4320301583197148;1.7989949951742013;-0.29426295204668484;0.023855612360982548;-0.2917510538688868;0.3870775388850074;-0.866049954958326;0.6810282766390721;-0.8805410715339281;0.2001849116406067;-0.3146641292477561;1.987962842112756;0.14712245702973892;2.842935065081796;0.8482849233140612
A;-3.6;0.5676209378998287;-0.38726915531670114;1.8521993002338117;-0.2658554654911027;0.05197069851971925;-0.2643086662063565;0.3721518491932745;-0.8582411247073862;0.6801637337729058;-0.8286957539019628;0.15322671734131;-0.31865149316172037;1.9854816901530024;0.17072607094782222;2.8431075511622357;0.8694960310561679
A;-3.5;0.620757498881142;-0.3448980610072421;1.8957720129031106;-0.2377727891668009;0.07564119048632456;-0.2367311912204242;0.3631870029109816;-0.8455561643948002;0.6797642732127045;-0.7797019965750414;0.11241390767776416;-0.31691292403776217;1.97571731192647;0.19130201015091042;2.8351373988571837;0.8874735971514428
A;-3.4;0.664076675814874;-0.3059516490248759;1.9260154221223296;-0.21062840236325275;0.09422039792621995;-0.2097460073091355;0.3557672542090362;-0.829037748290169;0.6778648790753223;-0.7338875289228435;0.07639267242795178;-0.31193593047959567;1.9563745087444433;0.20800452648099643;2.81492670156287;0.9007313121305034
A;-3.3;0.6949852831460568;-0.2711985452182528;1.9398562951221656;-0.18501938713929356;0.10860916423581024;-0.18407554236907409;0.34536491810536063;-0.809923663555848;0.6725049249313546;-0.6907850349075568;0.0435614058643381;-0.3063967825316851;1.925703114735815;0.22028387422049445;2.7789836413777818;0.9079693388728625
A;-3.2;0.7095764726618903;-0.24196455494119462;1.9329383853338324;-0.16158643555660568;0.11676708772671596;-0.16047668130055204;0.32736747745163797;-0.7891796484791831;0.6616099591573228;-0.6514265643191157;0.012663227868745963;-0.30278536456514793;1.8807954399425642;0.22696516423342583;2.722477400731205;0.9074901991514412
A;-3.1;0.7042929170844978;-0.21943679552031714;1.9012881548698086;-0.14093242785915638;0.11695084476536799;-0.13967780033214705;0.2973161104696338;-0.7677895778844066;0.6431928946862335;-0.6166720206512295;-0.01759299631869382;-0.30356123585852224;1.819065150675268;0.22703991102102017;2.641006510950092;0.897747957879276
A;-3.0;0.6808820753189533;-0.20307929984128847;1.8467298158989767;-0.1229694090754272;0.11011058601575918;-0.12154711359498904;0.25673599934355806;-0.7456260675120898;0.6179257065366404;-0.5860718674913397;-0.046843173138565675;-0.3080023563272327;1.7418843256621193;0.22096990235770453;2.5365066704028068;0.879208305508806
A;-2.9;0.6424254685606794;-0.19196417495906415;1.7726226660207853;-0.10739105744236088;0.09746138346665845;-0.10567775530994794;0.20903184683207954;-0.7221422069551897;0.587303302085294;-0.559046873259395;-0.07410500884204829;-0.3143156163397407;1.6515441284763464;0.2094871241302143;2.4125613861339;0.8528774888877227
A;-2.8;0.5920312867021771;-0.18499553206529296;1.6822408973365253;-0.09396675526769815;0.08109856947276128;-0.09183860519081666;0.15629063792761144;-0.6972801793568459;0.5523130194314181;-0.5343717061285336;-0.09917038890032615;-0.3216985955695524;1.550712469722141;0.19376168231776658;2.2728032685701285;0.8198221244477063
A;-2.7;0.5335624122774725;-0.18082923153880914;1.57968570350676;-0.08237119119107739;0.06352738214685871;-0.07968105160745864;0.10139231140185778;-0.6708490877314501;0.5143014410168387;-0.5110676218550321;-0.12162977226004834;-0.3289365939040767;1.442626478029732;0.17517879434967898;2.1217589202918363;0.7813940936844226
A;-2.6;0.468083650386097;-0.17924801285353187;1.46632398848147;-0.07246520976390514;0.044664389079351;-0.06902792321927897;0.045868718185033686;-0.6425862369288629;0.47394765733119293;-0.48963835453262305;-0.1409329716952641;-0.33514436069676456;1.3279544194677628;0.15376283869795837;1.9607104204891161;0.7379436249530513
A;-2.5;0.3959712151187489;-0.18024448601134813;1.342823923907945;-0.06417123436759375;0.02392489555482591;-0.05980927308819872;-0.009588929183527384;-0.6123912332308423;0.43157299929078263;-0.4678414800578228;-0.1568031711862865;-0.3399091547764801;1.2068995759804437;0.12939952613334293;1.7902004053181821;0.6896311819650207
A;-2.4;0.3193979104086875;-0.1832825299273222;1.2117136881479134;-0.05723481599185831;0.0016005469045001774;-0.0516471306641586;-0.061966149007457005;-0.5796958129218437;0.3884963912418584;-0.44532559687197804;-0.16818916562002428;-0.3414914089143437;1.080854735929604;0.10229490670794839;1.6127236501170064;0.6371312501179445
A;-2.3;0.24035821847489203;-0.18788671255179512;1.0753886053931527;-0.051395192882218055;-0.022170331555962264;-0.04417285830624529;-0.10841441692286402;-0.5439555596311685;0.345973650471036;-0.43337386746426887;-0.17408976806773424;-0.33823528183992657;0.9510771620910798;0.07260136081381097;1.4306138996699396;0.5811008681713037
A;-2.2;0.16116864497552008;-0.19310704975605075;0.9364016159810173;-0.04645072310503551;-0.04627584923078132;-0.037331060950234196;-0.14844251969620714;-0.5055114040051842;0.30436947338491294;-0.4224741524495652;-0.1750391521686243;-0.3303910544373849;0.819978073784025;0.04163882316726797;1.2468935213535541;0.5225976058303767
A;-2.1;0.08472866710146576;-0.197708892116224;0.7977864207252399;-0.042205911584716205;-0.0690967558869442;-0.031094572083377514;-0.18167263491472418;-0.46486010479770545;0.26402775591522243;-0.3812984700967448;-0.17182635645731992;-0.31844061589710293;0.690629037739928;0.011154776191211413;1.0652470826552136;0.46287413304439107
A;-2.0;0.011995138572276076;-0.20119893038091252;0.6608799283416129;-0.038508837685658825;-0.09015738215060942;-0.025543832165988434;-0.2089816870059611;-0.4225657989932978;0.22474525397019818;-0.38456183492628426;-0.16536733957712002;-0.30333147295659835;0.5643879515965988;-0.01794812956363101;0.8872733483278008;0.4026743331422178
A;-1.9;-0.056105960217388784;-0.20305202759324592;0.5269885273466723;-0.03520828091230843;-0.10894149711434764;-0.020793126343623847;-0.23156327917987518;-0.3792950533078461;0.18620114560892453;-0.35835426097345113;-0.15676804478830242;-0.28625039449980605;0.442696285631202;-0.044650737824998954;0.7145991692549982;0.34279061658367826
A;-1.8;-0.11636660940979482;-0.2021254240660233;0.39933055258231676;-0.03215236924081566;-0.12408447903168351;-0.0166387874909395;-0.2474687892077938;-0.3350741104830135;0.14933814302087534;-0.3340872427809414;-0.14592270789722228;-0.26651106877742414;0.3283489986187025;-0.0677161927179446;0.5508358864966816;0.28421149375458343
A;-1.7;-0.16591527969356967;-0.1974771420129131;0.28081118356024604;-0.029211353101992188;-0.1344828173795367;-0.012840365161532752;-0.25450546497088844;-0.2897880628584337;0.11517731512560125;-0.30802257812526346;-0.132450961114559;-0.2431362753032822;0.22364818604440906;-0.08628129212142843;0.39909120423211597;0.22771995894736752
A;-1.6;-0.201102524043689;-0.18770416173431137;0.17513848500881224;-0.026154235138504234;-0.1384837680338098;-0.009192355825800469;-0.2509145850893191;-0.2435912590758278;0.08463253782105795;-0.2794304372352707;-0.11656711601283298;-0.21573109659684242;0.1320343977734968;-0.09862013877825104;0.263734607735012;0.1746677803509613
A;-1.5;-0.2185523488765675;-0.1715421945302804;0.08568168242003082;-0.022809242589415746;-0.13455307599324584;-0.005498443137912368;-0.23494249185507954;-0.19659713923643718;0.058592343690715865;-0.24510227725455724;-0.09836973337370125;-0.18381384071064666;0.05660152698383403;-0.10324586902248645;0.14867938251138746;0.1261987914881424
A;-1.4;-0.2194851856307931;-0.14948207105425215;0.011805843125340942;-0.019121114295360897;-0.12339780108860765;-0.0018346352761238194;-0.20793364623506783;-0.14914147360633923;0.03659907542288643;-0.20570713293200438;-0.07830664685139688;-0.1480776429943873;-0.003656995948042585;-0.1007079986571382;0.05282346005075045;0.08220730614290894
A;-1.3;-0.20637706562049019;-0.12242813238551475;-0.0481166567350364;-0.014999541185276577;-0.10630425404789001;0.0016412381311683433;-0.17237758841615758;-0.10170372077351875;0.017735385423021555;-0.16225270159881866;-0.057155701205577;-0.10979664976097325;-0.05067690872690456;-0.0918914429637332;-0.026060241234700854;0.042455271373086134
A;-1.2;-0.18151050762922694;-0.09145199943060733;-0.09617243148410637;-0.010694336841611474;-0.08445187385026465;0.004802701502457651;-0.12945447456439751;-0.054409895274928566;0.0014858196827258752;-0.11478236573946798;-0.03475447332816728;-0.06916516327092737;-0.08693044561591723;-0.07841346676839533;-0.09105393820715779;0.005840736702647398
A;-1.1;-0.14781366740708002;-0.057873256010350094;-0.1350105168424811;-0.0064701909425313175;-0.05933407313974648;0.007490737998192998;-0.08075923163569776;-0.007409166558739244;-0.012844409751661345;-0.06690697977675164;-0.010977977077004653;-0.02652573626914645;-0.11547438361183548;-0.06218507994835587;-0.14594871709685098;-0.028914793181945342
A;-1.0;-0.10617618767243897;-0.021872582303350097;-0.16470660415080474;-0.002060504503192284;-0.03141763061900349;0.0096628646751995;-0.028092881560828786;0.038819157029079676;-0.025807132749937622;-0.019976559815110484;0.013161415495350326;0.016892845206871954;-0.13647738900187534;-0.04298130660431587;-0.19074861457662173;-0.06120231585451341
A;-0.9;-0.05693553325661149;0.01656385079383149;-0.1849964287456256;0.0027548259649359252;-0.0008595511894711194;0.011307749466692663;0.02724034664566055;0.08386711134740032;-0.037762482651103824;0.04037954705840807;0.03678843429362999;0.06010962410591958;-0.1496652688066593;-0.02038952524187132;-0.22498637011013045;-0.09038089926795867
A;-0.8;-0.0019288045054626224;0.05695266067695792;-0.19652981563320004;0.008340030929683273;0.031375048650836845;0.012332245227291594;0.08247267219830334;0.12710567873004042;-0.049623949344024254;0.11287111412377815;0.05857046952206346;0.10137573302808178;-0.15590313933234157;0.00557771147124142;-0.24941062655981217;-0.11583371785117746
A;-0.7;0.05711620234634296;0.09886614892597967;-0.1998881622992883;0.015064164337715624;0.06439239675835573;0.01265476483374428;0.13490905969146993;0.16792288310084214;-0.06227285602346022;0.13286377833970064;0.07716653092910342;0.13896010571573214;-0.15591578441849396;0.03500631194411441;-0.26461117613139606;-0.13688464774208775
A;-0.6;0.11849284801295923;0.14129398918837666;-0.1974799921689545;0.02230426966715271;0.09747052431306891;0.012175407845203878;0.18467564841680684;0.2065149360975136;-0.07581908707446772;0.20183670568830614;0.09351564233008425;0.17362134466967305;-0.15215492859938173;0.06597393890973602;-0.27402722582620154;-0.15534152981777472
A;-0.5;0.180142394683104;0.18292800205357285;-0.1924132647330179;0.029194378153956535;0.12971406400122376;0.010768944541413639;0.23235652570878784;0.24324531570605323;-0.09028085025672361;0.30300616662561985;0.109117093683059;0.20665775042576584;-0.1478896772819578;0.09582872803624576;-0.28224204134190245;-0.17375132238256308
A;-0.4;0.24136476687803743;0.2232109842159562;-0.18626271465515387;0.03518247376367256;0.16093873105322132;0.008421464036469928;0.2787225578547847;0.27840343063236883;-0.10547656258914984;0.35087720916213616;0.12487303703717778;0.23900428633243997;-0.1444414046405207;0.12335742440499065;-0.2913206312733694;-0.1934362570484709
A;-0.3;0.30148918137343905;0.26153381730437775;-0.18082311713068044;0.03959523037298052;0.19100918854479332;0.0051206682873550236;0.32490937399875186;0.3123878027310143;-0.12112213518527248;0.35082881286742307;0.14196197236558739;0.2719032122851104;-0.14329667420279435;0.14714114177303794;-0.303630134543293;-0.21600406347208412
A;-0.2;0.35821146942641136;0.2967804333726598;-0.17824829704084877;0.04214140541923861;0.21870751133694633;0.0007477237758530819;0.3698328073692334;0.34508926856899347;-0.13769867011068726;0.4738118822940205;0.16068858093866645;0.3052870496311222;-0.14715984808511795;0.1653517433912739;-0.3225534179508909;-0.24275757073709348
A;-0.1;0.40945767267053057;0.3280780349700527;-0.17998820076583577;0.04281322782734076;0.24286073897973992;-0.004784964919107182;0.4118751278372894;0.37622009622506347;-0.1557988840294655;0.5127091549985199;0.180797524631231;0.33852738973927643;-0.15807449837639354;0.1767941802819044;-0.35044392375639344;-0.2742591711299167
A;0.0;0.4525064168695856;0.35396524353436076;-0.18933256646373486;0.040921184583429415;0.262193576137669;-0.011635676336799072;0.45066519976267294;0.4059585523278493;-0.17576610525393654;0.5574483734467934;0.20337147807533462;0.3723209423801368;-0.17968273160269543;0.17880665132216889;-0.392170567548928;-0.3128371438632729
A;0.1;0.4848846079964737;0.3731536100449251;-0.20903253930996435;0.03594532150037644;0.2754819514309901;-0.019935573068819323;0.4856226648958941;0.43438568592645677;-0.19796350006726904;0.6017783950982496;0.22920633700530502;0.40709361186386417;-0.21518983604521047;0.16909406521590475;-0.4519129559536452;-0.360384043358831
A;0.2;0.5074152361665618;0.38618164526375787;-0.23795353052239498;0.02821079926797232;0.2831421846848752;-0.029527230679048166;0.5165938251825768;0.4613923835021998;-0.2222612868392808;0.6463638093078599;0.2575933833698407;0.4423535114679993;-0.2630343513766711;0.14889458846098047;-0.5275816749872959;-0.4156700521008956
A;0.3;0.5217170899934267;0.39395094477014614;-0.2745294362994226;0.018019666716691418;0.2861225408164021;-0.040190287390077906;0.5440788603998943;0.4870171339873588;-0.2482717068760234;0.6844017505499265;0.2878812169945224;0.47784985559298043;-0.32072453171298143;0.12003959415745835;-0.6160759077087388;-0.4771780614592678
A;0.4;0.5296872993744;0.397760011975159;-0.31507526609997605;0.0065059834830965;0.2849905884553863;-0.05165815047650124;0.5667775949706666;0.5106268485589913;-0.2760158372962458;0.7185593317896419;0.31795998102501954;0.5117325407172402;-0.38477249457741003;0.08539209769238187;-0.7121845755218228;-0.541656700666509
A;0.5;0.5336793319363657;0.3991663026221861;-0.35535411901746805;-0.005065170411643116;0.28053975717456936;-0.06362248968116369;0.5834449444415402;0.5315645305348404;-0.30544741537871545;0.7525160010171978;0.34550468015845226;0.5420174173155043;-0.4510186740641968;0.04832271298154156;-0.8098072135321592;-0.6053997607300765
A;0.6;0.5339009454278454;0.3981583623775664;-0.39648380542768;-0.01720093585123106;0.2733173489023457;-0.07600065076409734;0.5954631597268314;0.5503434246730814;-0.3361235409925918;0.7861948133090477;0.3713268253521047;0.5697307612874827;-0.5194072724323737;0.00869426624748959;-0.9094799252288572;-0.6691301944650268
A;0.7;0.5302032651014912;0.3945249956595538;-0.4399235582090366;-0.03048864764219772;0.263654452655933;-0.08874369814491967;0.6041083229946551;0.5674708033268887;-0.3676662650445284;0.8194656406343341;0.39638936736621133;0.5959584495700554;-0.5904440173439545;-0.0340532365381192;-1.012420122842955;-0.7339169008575892
A;0.8;0.5233649065110555;0.3885412354014737;-0.48646259273535364;-0.045388106639287606;0.25249299780487533;-0.1017153570176248;0.6112224973196732;0.583576120484639;-0.39945643831385347;0.8507608948423608;0.42147693664716535;0.6218684603300382;-0.6632927070567511;-0.07949968654697392;-1.1183047184834765;-0.8001319133085323
A;0.9;0.514048197909025;0.3803965556896254;-0.5371499542599967;-0.06244205139560943;0.24075940035825738;-0.11479448984291718;0.6187954980469854;0.5993522802797164;-0.4308514698705306;0.8797235245416739;0.44756806924944925;0.6488005959905916;-0.7373643137013977;-0.12743410918644615;-1.2271954562859504;-0.868398749262302
A;1.0;0.5040925168524311;0.3714434758427563;-0.5872797415650375;-0.08014488982802881;0.2286041925204767;-0.12771996928677165;0.6245495158476455;0.6137964279167507;-0.4621074184819065;0.9059823006735059;0.47200056373726973;0.6741576562602933;-0.8092128427185781;-0.17492944236850194;-1.333361698088651;-0.9349319712691484
A;1.1;0.49592974942120627;0.3635331536481523;-0.6301117107855774;-0.09625404946717886;0.21607234856098323;-0.14016038719327906;0.6249647253472617;0.6253921172261316;-0.4937170486051645;0.9300427134483149;0.4908638178211433;0.6940833591503264;-0.8741006675544449;-0.21788644620949027;-1.428779912566891;-0.994274337335999
A;1.2;0.49046772526719273;0.35740783153139155;-0.6626550436744694;-0.10976632565701117;0.20308310060372392;-0.15196038646029475;0.6183959862512687;0.6334550029761212;-0.5258888007077633;0.9617726343700612;0.5025606626542043;0.7068826050694348;-0.9302507135437139;-0.2547348466724202;-1.5102394199004605;-1.044173902842576
A;1.3;0.48872118929119246;0.35391265590004206;-0.6813925604421058;-0.11951428137519304;0.18946499966025776;-0.162955752752592;0.6027700549436563;0.6371325303438642;-0.558924188030602;1.0018881733631404;0.5051504165862077;0.710473420347352;-0.9756592353662734;-0.2836883967918604;-1.5740129673602352;-1.0820108038624783
A;1.4;0.49273378882491237;0.35451340358168304;-0.6818143994547388;-0.1239181065750623;0.17567471473229368;-0.17284991481898349;0.576431539196081;0.6356525661899282;-0.5929244994645444;1.0513930427571405;0.49611823411102307;0.7026258470099656;-1.0064226230082287;-0.3014204793022337;-1.6140830886044926;-1.103775999608577
A;1.5;0.5040441595904088;0.3602801128965878;-0.6610348745304044;-0.12188005536003299;0.16228946606662653;-0.18140116499514836;0.5388243778762334;0.6286995400922617;-0.627786987599789;1.13565013999359;0.47399239120842296;0.682196032023823;-1.0196181328085157;-0.30545333354838;-1.626272742392687;-1.1066830934419318
A;1.6;0.5254082091179875;0.37317123325039026;-0.6127201361170869;-0.11140379618377327;0.1496792465568415;-0.18825640035433544;0.4870879594539588;0.6149863584414099;-0.6638262814297047;1.2172443197843097;0.435082793049304;0.6457163539082629;-1.0101996513471247;-0.29152595052319397;-1.602396287661338;-1.085468960684945
A;1.7;0.5592320624918212;0.3949011034211929;-0.5315426637151486;-0.09080774469199326;0.13821913696669874;-0.19309619757359364;0.4188451495954215;0.5934539573112332;-0.7012884309998295;1.2169596518645625;0.37619579907137357;0.5902340941121729;-0.973716209891478;-0.2558715691036264;-1.5353105554953705;-1.0355770874683685
A;1.8;0.6041479371264167;0.42451396849234757;-0.42089029321158655;-0.06104044544971643;0.12799499887669796;-0.19602756222747253;0.33624289844090427;0.565044218702413;-0.7397442939943435;1.2156234602147404;0.29974090250982854;0.518035476719998;-0.9127664659024708;-0.20064822232527657;-1.429455385655162;-0.9598050664709619
A;1.9;0.6580436243992409;0.46049034475982786;-0.28595998322586347;-0.023788916613611377;0.11894749630385171;-0.19726320477039927;0.2421321375204144;0.531022413445605;-0.778675837234152;1.3448257179729999;0.20921538542893714;0.432322214624671;-0.8315723826187309;-0.12943870487249454;-1.2917128913985474;-0.8627207089077422
A;2.0;0.7180266386806551;0.5008342228829534;-0.1344839301126779;0.01868136942148535;0.11118397220343468;-0.19704039394327388;0.1407085720339083;0.4933111189486503;-0.8173658539604869;1.5194169032849367;0.10908352899025253;0.3375593069385623;-0.7351879852696355;-0.04642015676918554;-1.1308936115334767;-0.7500383355567175
A;2.1;0.7806714518888089;0.543181939553862;0.024725771381467254;0.06385932011205764;0.10477753726880046;-0.19565914518048189;0.03683325795941883;0.45411366256541186;-0.8549981547630789;1.6081504644911235;0.004620973880037127;0.23897335049769985;-0.6296319761305851;0.04344383615973779;-0.9574194971710792;-0.6283869803848003
A;2.2;0.8457905033566462;0.5872360047172449;0.1901173492753152;0.110547168875061;0.09967471722403154;-0.19317463256711687;-0.06915817712177308;0.4136152579399983;-0.8914602932246627;1.6578774436840007;-0.10343333936067367;0.13700031834681603;-0.5162177586634034;0.1388128793019332;-0.7729082458397674;-0.4997637022693189
A;2.3;0.9136374351040679;0.6329786675819449;0.36051485616063417;0.15737023990497523;0.09583284407954196;-0.18959379597955905;-0.1775391573949019;0.3717880245298;-0.9267531809616205;1.741313803355319;-0.21510414711969972;0.031380985102183345;-0.3955260996062746;0.23889366714826177;-0.5776911671176403;-0.3657479243642232
A;2.4;0.9833999709433172;0.6797541124147908;0.534523541008781;0.20380960866766618;0.09313856924855379;-0.18505602582467873;-0.2872007454907326;0.32903913768929627;-0.9606321431586355;1.841067815612074;-0.3285743817882487;-0.07651802886484127;-0.26984118610533514;0.3417041776012302;-0.3750782151408094;-0.22848640942871623
A;2.5;1.054469730664957;0.7270396229228837;0.7112678044955256;0.2495075072711712;0.09146098936675884;-0.17968998518384272;-0.39733854608143915;0.2856357423453799;-0.9929117749011453;1.9339403656030512;-0.4423466659212334;-0.18565425994851026;-0.14113255309911743;0.44552793947058955;-0.16778738670941706;-0.0897483140960369
A;2.6;1.1239747919645637;0.7728275532826194;0.8810775792313184;0.29089938865616727;0.09089295938878728;-0.1737082617080734;-0.5040043105347163;0.2435967483361834;-1.0230096181020052;2.02383107594894;-0.552558134573605;-0.29190705257904703;-0.014281438555558523;0.5462284216533531;0.03566717262131913;0.04392337012895098
A;2.7;1.1880202827317952;0.8145665537925944;1.0329680776738766;0.3249499735589394;0.09160364711114433;-0.1673825117615113;-0.6017942657529627;0.20554094687787394;-1.0501235625167702;2.1128167781304334;-0.6540132174852538;-0.389658419056893;0.10479714942740959;0.6390955524461255;0.22449359542936342;0.16558127144511547
A;2.8;1.2451058633108527;0.851155238142048;1.1607077519386841;0.3492572633807516;0.09366057301646435;-0.16082521125407734;-0.688599823496963;0.1726278205592937;-1.0739895705463294;2.196871860325004;-0.7448733094786917;-0.4768039106999904;0.2134326452228672;0.7218498571932719;0.39414703237635074;0.2712548978523228
A;2.9;1.2935461475374748;0.8812803677863021;1.2558764030479406;0.3598032405163467;0.09714108687033551;-0.15415642181411204;-0.7620895081615036;0.14625388260996974;-1.094329608574082;2.272187239719991;-0.8231684383714661;-0.5510264082557246;0.30842842688422767;0.7915692649727366;0.5392655222366507;0.35540909058976644
A;3.0;1.330120925526062;0.9032501158692465;1.3169406979691711;0.35997556315874224;0.10218212719111541;-0.14763911771512284;-0.8175909563461055;0.1281002851616444;-1.1103659927809328;2.3368834701139285;-0.8839877072267726;-0.6073641256713014;0.3860088695650523;0.846205774733489;0.6522111457339657;0.4176978195933798
A;3.1;1.3524200707963505;0.9159709560194045;1.3462112030604736;0.3547342752712819;0.10889111257814754;-0.14149590139962065;-0.8514523591451191;0.11922198641207782;-1.1214514605300607;2.3899035832210416;-0.9233008664051745;-0.64190473214971;0.44375378029142887;0.8849879744478475;0.7277084787104551;0.46025869736528335
A;3.2;1.356259708770354;0.9164519047303372;1.3289462835374533;0.3370271555287072;0.11737356032953805;-0.13605499292882772;-0.8579541814591902;0.12259456804392688;-1.1267196543254734;2.4287183367519356;-0.9352890035139403;-0.6485762002046691;0.4742660379965189;0.901375461360504;0.7528836431717245;0.4724712708675902
A;3.3;1.337922395825066;0.9023333293068125;1.2565192917419772;0.3049529971331699;0.12775210336034348;-0.13161400831349646;-0.8318843019328348;0.1405826806695174;-1.1253548694412743;2.451258153475398;-0.9145967821536196;-0.6218476237971888;0.4719319962145674;0.8909943240658724;0.7174528603993258;0.44851220027127736
A;3.4;1.2995058653759184;0.8747581516937704;1.1331564716462488;0.2575255266604204;0.1399679989364877;-0.12808463538265435;-0.7758015040715858;0.17205751564659622;-1.1177766308092636;2.4586539502432028;-0.8638012223600686;-0.5645149798976519;0.438946026645481;0.8553558218024349;0.6260019874223213;0.3902566724785268
A;3.5;1.2443990359801553;0.835202467798275;0.9553656760254707;0.18678416632886918;0.15385675363482498;-0.12529427250728276;-0.6942296753669837;0.21552886097446944;-1.1047813328955982;2.452795334797166;-0.7875916192481416;-0.4814756970335079;0.3778099277409517;0.7951121719849985;0.4848302638795259;0.2946570945552509
A;3.6;1.1766075197541799;0.7881114738643162;0.7575423820497491;0.1209762038800326;0.16948623487236958;-0.12301802110479709;-0.5916402231369933;0.2666713299262904;-1.086922238000371;2.435948406978153;-0.6902389804076972;-0.37758026101620956;0.30043569000864245;0.7242145429597391;0.31209731015865394;0.1904806209458898
A;3.7;1.1009717019190948;0.7379669842489256;0.5964268868484073;0.09530557404723528;0.1868946454891507;-0.12097754254072424;-0.47362654160393447;0.3211425578968754;-1.0649329013270368;2.4109590523873567;-0.5771522952869788;-0.25887632159933993;0.2182612980410914;0.6551057383638681;0.12601538348579666;0.10993819274751337
A;3.8;1.0183027565216083;0.6837402262616803;0.4560813150896976;0.09641437106523298;0.2058243172512082;-0.11918108698575658;-0.34186411904001623;0.3798599094571582;-1.039302070857648;2.3787094044527763;-0.45027692162866373;-0.1271601498053716;0.1272498730507161;0.5811150175556397;-0.07702182024815851;0.036954728589456476
A;3.9;0.9286734393656886;0.6244436681750267;0.21823858013533481;0.06022429513176064;0.22605983057343515;-0.11768129960105167;-0.19699502443452843;0.44373457423517326;-1.0103390986298901;2.339602633425565;-0.3104879713349469;0.01688277092977941;0.02403246808202386;0.49714825318984013;-0.3003519637340242;-0.07160915079796282
A;4.0;0.8340290938585877;0.5564372038911864;-0.15451713839714998;-0.07597864962919854;0.24724899590192173;-0.11642106436486355;-0.04239243894808986;0.5163769594994658;-0.9788595336189978;2.295396985671985;-0.161535388049165;0.16964062654106193;-0.10510893768850682;0.38122958702821963;-0.5591994329353973;-0.264263922439991
A;4.1;0.736053947037199;0.47629818969635607;-0.28501937052261006;-0.1191446644210652;0.2690207338015185;-0.11536021974697519;0.1188184764946385;0.6011057869109129;-0.9456604655659859;2.24770482663272;-0.00693644631967949;0.32778055110250115;-0.27293052023307673;0.21309081420402531;-0.8676534015087629;-0.46058247990774825
A;4.2;0.6382162174242278;0.3899633887658518;-1.055406933137922;-0.6124702496663899;0.2916569168008909;-0.11428422065449073;0.2834746861319566;0.6923719520835032;-0.9109250457391251;2.19810589161968;0.15056941793756629;0.48785412183608834;-0.4621565893960833;0.014650239333627635;-1.2015123418183515;-0.9027242102546449
A;4.3;0.5450886743085004;0.30458169950745173;-1.4984486723326036;-0.8026509616238711;0.3156144524851303;-0.1128946831578288;0.4476517616523097;0.783550282698986;-0.8747783571197818;2.1485592348728435;0.307702765567047;0.6455665688126384;-0.652369537825856;-0.18844348970892844;-1.5324345714989702;-1.2351453097557274
A;4.4;0.4583125939696995;0.22840110245056677;-1.8964650422955032;-0.9298264649560268;0.341087566823564;-0.11109866618029596;0.6101106919109149;0.8662549657715921;-0.8372035973274272;2.0996017566018423;0.463592627663477;0.7995930881297664;-0.8169471586681949;-0.3583514099780776;-1.8250389725639726;-1.507957983001254
A;4.5;0.3796357539334654;0.16980021398163903;-2.1010554809004045;-0.9637235073152519;0.3683399952747308;-0.10878751164753364;0.7696977777075347;0.9322226568430434;-0.7981060586577371;2.051716172913076;0.6175408903849817;0.9486993847138923;-0.9289578621899057;-0.4573089463156892;-2.04361273559729;-1.6385831958626955
A;4.6;0.31344349324673537;0.12732005998817542;-2.158323073319048;-0.920288460615863;0.3975148340486925;-0.10571449864158033;0.9217274150147006;0.9831067030154124;-0.7580182418234891;2.0073086735602486;0.7651319920196329;1.087800600139845;-0.9969867456923431;-0.5012177245783991;-2.197267886847798;-1.6600501220630162
A;4.7;0.26336583496768284;0.0970942684113747;-2.1120782928808417;-0.8279849609215661;0.4285753085830173;-0.10170031063044771;1.0618564836167828;1.022744002046224;-0.7175894324618426;1.9686150166787324;0.902097966167883;1.2122129613744566;-1.037125493661942;-0.5160402184654069;-2.3050200484908503;-1.6170453919225038
A;4.8;0.23469305617781444;0.0759403214734764;-2.052538008907094;-0.7107589628850137;0.4618714488973854;-0.09640610416564588;1.1849064240884317;1.0560517702280778;-0.6772303731713656;1.9382810927963843;1.0237567136897;1.3163082966529522;-1.0646717010298268;-0.5311873282610686;-2.3841566671758487;-1.575434910106544
A;4.9;0.23225858753985484;0.0599239777966587;-2.0772482500840432;-0.7345444445403899;0.4976681409335555;-0.089534293149228;1.2859930021136758;1.0881041727800183;-0.637388823944006;1.9188059342316781;1.1256339725446853;1.3947898344585106;-1.097083266350638;-0.5776817102617242;-2.4550958386638735;-1.6074369259540182
A;5.0;0.25387359155395295;0.050372898877146355;-2.153285667441569;-0.8357188163380984;0.5355483836691342;-0.08129154963691221;1.3665382285158536;1.1169672568850917;-0.5982217462056401;1.9093263941966154;1.2089040975719811;1.4493538572626878;-1.127980495380518;-0.6439542975234476;-2.509903607967302;-1.693668681915534
A;5.1;0.29558392231096065;0.049841625181275884;-2.2286204209703477;-0.9600616135111322;0.5750159514493252;-0.07198805581699919;1.4297885238777308;1.13974079770035;-0.5596929281612173;1.9079928648364892;1.276496749453866;1.483718912733103;-1.1453625265885492;-0.7097882678623382;-2.533709430113503;-1.7889845816337555
A;5.2;0.353405242558539;0.05934328720601645;-2.225514283667616;-1.0491932606687806;0.6152862686150282;-0.06200743583183499;1.4782645603958091;1.1509910751538177;-0.5221483615314586;1.9134156642430247;1.3302963556405167;1.5008004756111095;-1.1423133974511543;-0.7537211038905172;-2.5194760573674584;-1.8493792720312774
A;5.3;0.42235448794222386;0.07976524438685306;-2.071490205344954;-1.0499712970804636;0.6554734432550289;-0.05180420892830373;1.5153641510601261;1.146101898051529;-0.48589884338730727;1.9237375207773852;1.3729677780038294;1.5044911609368423;-1.1115073264736957;-0.7544713360470072;-2.4600622550045808;-1.858526369733247
A;5.4;0.501193224632619;0.10938049351698886;-1.8123311524297492;-0.9871553788860865;0.6955276592655508;-0.04143734016899003;1.5423224729933267;1.1287362554069036;-0.45079407492672985;1.938164833995136;1.4058516203878657;1.4962875462080731;-1.05788792952848;-0.7231031841612898;-2.36083288902691;-1.8263779343540119
A;5.5;0.5895973587382848;0.14554908857213888;-1.5027020497584438;-0.8817720169249954;0.7354930475174335;-0.03089899651974637;1.5595635589140269;1.102902875305185;-0.41672088392663653;1.9563526492998307;1.4295544422447772;1.4767824809331458;-0.9902728507879859;-0.6757293202071848;-2.2319745998016076;-1.6698561165646817
A;5.6;0.6848323296717069;0.18578770579780501;-1.2580932131047913;-0.7967133492093676;0.7752082313888016;-0.020343845439329655;1.5697453209412693;1.078792699453384;-0.3834128723352226;1.9767193249608837;1.4467626242726777;1.4490653623852836;-0.9149686400392305;-0.636171285691082;-2.0812497178798592;-1.6718705300370442
A;5.7;0.7844125497779988;0.22758100837177242;-1.1902209509284027;-0.8529336753030172;0.814573037417115;-0.009897269135175968;1.5753871783776834;1.0660045719263138;-0.350571210272868;1.9977623693006517;1.460072319216085;1.4160702692160143;-0.8386023746396853;-0.6276307549785654;-1.9167149693525554;-1.670129397835289
A;5.8;0.8853821582007857;0.2696919664681201;-1.2267113634458688;-0.9209275262352108;0.8528071402582151;0.00010432835535301166;1.5778293101106886;1.0590938134972987;-0.3187334089337952;2.0188152413745537;1.470129926705722;1.379386996946529;-0.7627170665330931;-0.6367305708186963;-1.7433388246382515;-1.7169819642039226
A;5.9;0.9839687648921274;0.3110244030875198;-1.2725816220517139;-0.9343178314218923;0.8888348367458487;0.009206778775263658;1.5786008657079957;1.0518671520452862;-0.2886826209121658;2.0391533760468903;1.477477686773689;1.3408149299682393;-0.6876002573944326;-0.6461183859611541;-1.566052939609178;-1.7587241686456574
A;6.0;1.0791010919446364;0.3512319187794448;-1.1840793934787737;-0.9234987503750149;0.922228780277579;0.017261186667020034;1.5777432494199104;1.0319500917362818;-0.260838074211458;2.058819572915961;1.4817516370782062;1.3004927139409297;-0.613341622515442;-0.6293846421348666;-1.3867274290678013;-1.708438297417323
A;6.1;1.1697378086301704;0.3900041175440281;-0.8471199538688321;-0.8102494004046097;0.9525119451967443;0.024106369258262816;1.5751350603974608;0.9869757076325119;-0.2356949010088556;2.0779744240138007;1.4823553491550694;1.2583711525343233;-0.5398977077826208;-0.5599927262735362;-1.2074303459257845;-1.4733968288672084
A;6.2;1.2516315932180913;0.42490666738690575;-0.29448093296748823;-0.4253399328017098;0.9787770587874327;0.029319401576429094;1.5732654214086477;0.9273281019460438;-0.21370051148448255;2.095252621836956;1.4810581918141068;1.2173571666397098;-0.47187131656543535;-0.4575193061059033;-1.0384654440294483;-1.123562055465353
A;6.3;1.32099975518366;0.4535671270435142;0.26392642572944247;-0.12480479706213998;1.0003297442893917;0.03256094611857652;1.5746155242187694;0.8667061105415099;-0.19509788657929938;2.109241235866977;1.479850515953931;1.180361195841627;-0.4141138200997112;-0.3491887001211924;-0.889665304495816;-0.752778402381113
A;6.4;1.3729546761500089;0.4732502295321024;0.7058012280085428;0.11821311242837584;1.0160559030246779;0.03331804306253172;1.5818929274361153;0.8200528400443652;-0.18051269875153686;2.1185547687849504;1.4804556945991472;1.1505024316926669;-0.3716365308821006;-0.2635746947718931;-0.7728247125061412;-0.4637019680135239
A;6.5;1.4029556109198484;0.48140492067897966;0.8675700039262377;0.19784081330743764;1.024938925794289;0.031123319825993256;1.5976464966745425;0.8030287437460579;-0.1704937790206955;2.1218604054115353;1.4845538812949002;1.1307347792542206;-0.3491430644672384;-0.23077110976160675;-0.6991151635799797;-0.3649854051121437
A;6.6;1.4129240033684756;0.4790793100665043;0.8090932316624446;0.1508250921103027;1.0275051245703795;0.026242619838552805;1.6208265858139335;0.8097902162870163;-0.16473178401360933;2.1196623375310857;1.4916130722461087;1.1200046762870066;-0.34468056827001625;-0.2400569883602457;-0.6643064757798438;-0.4162780470976548
A;6.7;1.4065328089907698;0.4683420462275807;0.6432240793917714;0.037507024083864415;1.024672806307536;0.019129577239482387;1.649346902534317;0.8290601747865747;-0.1627373808401913;2.1130643655508314;1.5003548654171368;1.1160761949357791;-0.3543009157315238;-0.27057520221284204;-0.659680244087788;-0.5399744695409301
A;6.8;1.3870392757423247;0.45092706785956005;0.44694444284212764;-0.09425357225977926;1.0173232450693366;0.01022028968076949;1.6815039149295075;0.8531095784389633;-0.16391287080581662;2.1027442815573285;1.5100722992852287;1.117232522089406;-0.3749711025446265;-0.3077976474936923;-0.6787520148668484;-0.6836953043462897
A;6.9;1.3586038247694248;0.42906102913384303;0.3106962024815729;-0.18690052340986085;1.0065626358279571;5.612302230773025e-05;1.7151139975164824;0.8727802646913609;-0.16752910922748576;2.089626592098229;1.5197772930415745;1.1212197394987324;-0.40276528706813775;-0.3346857823979943;-0.7129911853098214;-0.7857425866278773
A;7.0;1.3225695736134693;0.40351183754324293;0.2210808211868791;-0.24784972560127994;0.992749264322077;-0.011183922261571944;1.7493957869227952;0.8888095364448789;-0.17344701671274265;2.074302259548188;1.5288579831923386;1.1271861121834785;-0.43609217226772135;-0.3544724935368202;-0.7587966982444891;-0.8533092913130393
A;7.1;1.279420584628646;0.374566776716458;0.1309626024068411;-0.30490640881462827;0.9760258079413573;-0.023421655591250534;1.7840276877191172;0.9052147130797055;-0.18164371361814524;2.05712213550811;1.5369822170804657;1.134793467321325;-0.47426315692882515;-0.37659512161005715;-0.8147466351386559;-0.9168746297491337
A;7.2;1.2319475167019487;0.3437948146911036;0.03581642116100703;-0.35905076146154524;0.9571098089042351;-0.03631091585913637;1.8174491595077793;0.9215532851244665;-0.19179814566846431;2.039123081478802;1.5430204275279849;1.1422972331892236;-0.5141821505293711;-0.40248009089465997;-0.8739200655961996;-0.977099234202079
A;7.3;1.182732507267076;0.3126559500982644;-0.07296720513589783;-0.4138543050673684;0.9366660370787523;-0.049532378041043046;1.8482163928118904;0.9378042667166264;-0.20362244479088787;2.0213082998076115;1.5458931773028688;1.148069732260172;-0.5529397619484984;-0.43434118043124936;-0.9297880774902216;-1.0374437704043298
A;7.4;1.1338550864107866;0.2822010522762022;-0.1865196930230173;-0.4658358135764935;0.9152652384096296;-0.06278793229656632;1.875237731777272;0.9527684588017156;-0.21663399171495357;2.0039252503863114;1.5453707679986515;1.1511183428514489;-0.588901049516739;-0.4694030288684732;-0.9798808260818346;-1.0939009667457649
A;7.5;1.087868035456891;0.253694689715547;-0.28566095492606003;-0.5067350382934732;0.8936159315885615;-0.07570841665267292;1.8972110760119385;0.9642941192767296;-0.2301996971153386;1.987152374171803;1.5412990339313843;1.1502875536722623;-0.6201993416661757;-0.502217463050191;-1.0217044058575997;-1.1368032798918501
A;7.6;1.045217893349779;0.22731581464595396;-0.3695555326748181;-0.5377255261116085;0.8718926771817168;-0.0881939941361427;1.9139717439931836;0.9723268173469686;-0.24407440049196083;1.9708842629020191;1.5339290386001352;1.1455598464817704;-0.646733520599895;-0.531993479373222;-1.0558128612581532;-1.167493317870267
A;7.7;1.0062259101571929;0.20316188365705745;-0.4387112731199885;-0.5608099163483358;0.8502390327546943;-0.10015792575996763;1.9254323004952667;0.9769937266176028;-0.25800418031664485;1.95492109179906;1.5236197660340203;1.1370228669109341;-0.6686101145340375;-0.55798672208463;-1.0833488115243881;-1.1887277149158209
A;7.8;0.9742714871533984;0.18298197471428956;-0.4889439202862622;-0.576805248891656;0.8296016516137197;-0.11113509143617328;1.9299107283440051;0.9771477810502995;-0.27132216420588584;1.9398781673383105;1.5097642533337954;1.1229808257933271;-0.6828786473578567;-0.5775723884888171;-1.0993039503147273;-1.1996727430054595
A;7.9;0.9525285788680513;0.16844044755472742;-0.5180541977269719;-0.5874283738184296;0.8108894321021358;-0.1206890989330045;1.925869443010134;0.9723014753115944;-0.2834358929445173;1.9264542947802696;1.4917045784803307;1.1018270234370924;-0.6866214967963691;-0.5888610328864825;-1.0984189166708216;-1.199933825689238
A;8.0;0.9447112620035529;0.1614440971889386;-0.5220985888778795;-0.5926768778556122;0.795099487193129;-0.1283214565027313;1.9114027413125694;0.962022422784961;-0.29358937914369143;1.9152125081710931;1.4688359872412384;1.0716761749748933;-0.6767543478442803;-0.5888212155001282;-1.075659669564275;-1.1897307182236143
A;8.1;0.9543128972726151;0.16378478165853938;-0.4972568494177967;-0.5894687536411114;0.7831951951752343;-0.13355720506583157;1.8847746277490174;0.9421123217546343;-0.30106758328996897;1.9066996985449554;1.4406099570656181;1.030794756721658;-0.650356511798746;-0.5745200883325543;-1.0262578984786597;-1.1691532624585692
A;8.2;0.9797640777822174;0.17464085149858644;-0.44576527244122843;-0.57549066170212;0.7748962082515352;-0.13655669209035093;1.8470648799961484;0.9123586946866231;-0.30604795739305146;1.9007485090464007;1.4075548353612124;0.9802765789569037;-0.6087559772406141;-0.5473111548621286;-0.9524849919790839;-1.1386657508654547
A;8.3;1.0180189027075937;0.19242462308197394;-0.3715252197611356;-0.5650606973699475;0.7695223587080076;-0.13767660930051662;1.8001168272649881;0.8881294704517524;-0.308961935668842;1.8969312273426109;1.3705245928538705;0.9220043185100213;-0.5546015822848238;-0.5097749634855777;-0.8588350782033913;-1.099009566172366
A;8.4;1.0667144660812813;0.21589836490291292;-0.2776770138857465;-0.5623359758511155;0.7666999141588411;-0.13715122955868342;1.7456568366562735;0.866347907011467;-0.310139460600789;1.8950387669521285;1.3302511708803877;0.8576487632686529;-0.489770213107092;-0.46370510100097606;-0.7485268831606895;-1.0504522558763338
A;8.5;1.1227856883325718;0.2434623202027395;-0.16830894632055937;-0.49864533871775496;0.7658832180763318;-0.13530398767324314;1.6858077626521002;0.7862656407911928;-0.31003494502135176;1.8947662087746489;1.2876151765839179;0.7892730399672825;-0.41672652983120884;-0.41147375294782673;-0.6257436876142028;-0.9933818205213489
A;8.6;1.1848560771076766;0.2743932521238521;-0.04602384443466789;-0.5236606502424124;0.7667100827653144;-0.13231572718286166;1.6213571416168797;0.7818917199914175;-0.3088024847835982;1.895853370025832;1.243078781865334;0.7177129870901311;-0.336850679679773;-0.3545280523578187;-0.4927550111272927;-0.9290074256448331
A;8.7;1.252240120419966;0.3083192864548139;0.08717069345223827;-0.5106860016293178;0.7689945031438628;-0.1282803941712114;1.5527345685620055;0.7274128196786371;-0.3064783087019407;1.8981228830107129;1.196972389912185;0.6434349734572056;-0.250962926220363;-0.29371247598072925;-0.3509409033316748;-0.8587293070428639
A;8.8;1.3223469226158109;0.34389286170801703;0.22685914960797504;-0.48934420149644975;0.772053077450046;-0.12353794484957348;1.481355232625873;0.6789744177698651;-0.30341554105088164;1.9011319277257899;1.150016256217473;0.5679212679014416;-0.1614876031986734;-0.23143577236210877;-0.20432167767045417;-0.7842472762394821
A;8.9;1.3927323087305776;0.37984151887415285;0.3688284398926829;-0.3916471322166535;0.7752214370670991;-0.11841695442778288;1.408534104357404;0.6316694451055076;-0.29994979125102716;1.9044438547070408;1.1028900546691123;0.49255094210025163;-0.07075396237675147;-0.1700088705791032;-0.05673696030664299;-0.7072534025463892
A;9.0;1.4621559857981925;0.41547872321044266;0.5103674586838096;-0.2812934385168173;0.7784923741395797;-0.11299177209618527;1.335599222685886;0.5869598433675396;-0.2962241910386716;1.907981849873471;1.0561852522768564;0.41852145179938915;0.02028494720318541;-0.10993030779327162;0.08986450620944808;-0.6289319317956457
A;9.1;1.5292326234451536;0.4500347271356069;0.6484393128168975;-0.25365492408624224;0.7819376094107078;-0.10732071707875335;1.2641597699307177;0.5421034829281988;-0.29239840607106693;1.9117199447399087;1.010579341821428;0.347261418158455;0.11068493529230494;-0.051477940909499864;0.23339493684482804;-0.5505340240170415
A;9.2;1.593927183812876;0.4834498534044529;0.7823874445321337;-0.2616394031429552;0.7857567719164358;-0.10136087819019224;1.194754927571779;0.4979600347098412;-0.28844988988367426;1.9157060146761156;0.9663304580969623;0.2791711883167629;0.200404219535403;0.005611324513048244;0.3736236306488845;-0.4725986999384757
A;9.3;1.6563920907118739;0.5157564343236516;0.9117859334179848;-0.22746436095490097;0.7902286059692418;-0.09503762904536117;1.1278878037787106;0.4561783748320014;-0.28433103331475884;1.9200274592332716;0.9236693667909286;0.21459022363065117;0.28958698557623475;0.061840668370252594;0.5105894762015817;-0.39561776393914405
A;9.4;1.714216248987399;0.5456769015084555;1.0319626883701432;-0.17973722265960745;0.7950268722999843;-0.08857795902758792;1.0654281958731442;0.4176934100797105;-0.28034495949807337;1.924471753750395;0.8834155992027153;0.15530148614784167;0.37632366952132124;0.11602355770276307;0.6406935600169543;-0.32151438459720416
A;9.5;1.7649492810442666;0.5719260322871988;1.1383733938391138;-0.1621961103834666;0.7997125494792936;-0.08224522440876303;1.0090768980082458;0.3834748803253296;-0.27680573222686533;1.9287841608408103;0.8463291569076237;0.10296067536529918;0.45858613619444366;0.16675688260281762;0.760288812855042;-0.25212274696837556
A;9.6;1.8061706217319387;0.5932040972504788;1.2261802314870653;-0.1569350823942015;0.8040587649241546;-0.07624032862373209;0.9609123318417705;0.3549993852522588;-0.2740366731230708;1.9327708300574624;0.8132856817666188;0.05949699951946563;0.5345290604178254;0.21302712228305354;0.8657296615135808;-0.1894367380344264
A;9.7;1.8355379950571988;0.6082606041547158;1.2907656834555716;-0.1410895235519103;0.807810097528268;-0.07076839580428107;0.9228695087977439;0.3335844032328339;-0.2723454130981082;1.9362465219263911;0.785101809821283;0.02671746522431029;0.6023532755901604;0.25384992985988397;0.9535165901874247;-0.13535580188782093
A;9.8;1.8539598639962467;0.6175665301403765;1.3338892849556068;-0.12144962911618862;0.8110036476047711;-0.06579575006248906;0.8942742599007989;0.3187195625123014;-0.2716119021199166;1.9392460339643267;0.7615368232321877;0.003917979960528228;0.6624744356202132;0.28947421853660416;1.024845059277033;-0.0893270119627616
A;9.9;1.8634358099052308;0.6221569588362206;1.3593644033192742;-0.10633009717714437;0.8138430479930321;-0.061190090028871325;0.8737167047245755;0.3093755720876681;-0.2715887729413051;1.9418801518199809;0.7420356661005627;-0.010349947569705975;0.7160889877050689;0.3206207318848042;1.0824453150376199;-0.049998302409618445
A;10.0;1.865058555954489;0.6226384299517045;1.3695358545973502;-0.09688082951393273;0.8162228885888165;-0.056945279944367044;0.8599994649833285;0.30469776930735915;-0.2720872057778525;1.9442195709396857;0.726161355860345;-0.017203421301568156;0.7637128075994823;0.3476008692537327;1.1279284767255264;-0.01660272303043464
A;10.1;1.8603675808820004;0.6198551143755897;1.367644094224607;-0.09474012617403282;0.8180709264291357;-0.05302486958768782;0.8515534019711293;0.3035714343612357;-0.2728631043743377;1.9463635923299374;0.7133223533193664;-0.01811755985115937;0.8061644997379007;0.37089856423018275;1.1635574098297319;0.011980047807401917
A;10.2;1.8505512356893359;0.6143867696620131;1.3558245156016095;-0.09845022996766417;0.8196229015522905;-0.04932934422519697;0.8478351573820966;0.30556635586356773;-0.2738209462047134;1.9483506148816039;0.703274146775712;-0.013774124004868327;0.8441396650021744;0.39095306934581164;1.190797522460688;0.03651209423731272
A;10.3;1.836342692772721;0.6065757007214838;1.3353215629651185;-0.10524685289284452;0.8210688291823054;-0.04579250785815514;0.8486333721535289;0.31049258987418416;-0.27491897781524877;1.9501988410446476;0.69590179658098;-0.0045271073277799445;0.8780473286995596;0.4080696551095082;1.2104780763662149;0.05740790904719084
A;10.4;1.8197990948137877;0.5974529637452572;1.3099375600731733;-0.11321496720872926;0.8227538095014557;-0.04224553967009648;0.8528042163811289;0.31749254545212224;-0.2759722639951292;1.9519946129235515;0.6907047704028866;0.0083317850987914;0.909171846536597;0.4230504229871541;1.2252968331133287;0.07608861169389569
A;10.5;1.8029240637673727;0.5880179788450168;1.2833484183165922;-0.12041883172618029;0.8250343018406738;-0.0385187068075874;0.8592697950323327;0.3257573088780159;-0.27680882542999186;1.9538196329098279;0.6872006974283735;0.023566682299643205;0.9387780733565609;0.43668569550109426;1.2378622529504293;0.09393172965150498
A;10.6;1.7858606708296199;0.5784114944570946;1.2561333835398099;-0.1269061885757896;0.8276134631050418;-0.03469739892547263;0.8672595030648296;0.33477828940169907;-0.2773146361272847;1.9557418434373832;0.6851152711216226;0.04055460106116371;0.9668217893585798;0.44912331679373785;1.248598348918132;0.11098200781592782
A;10.7;1.7685148585388788;0.5686867643675051;1.2285671063791117;-0.13328869954920552;0.8300201379413457;-0.030924097130711203;0.8758508752683145;0.34396302802829304;-0.2773595213521318;1.9578403298093345;0.6841386233382831;0.05861455756745215;0.9930631426278023;0.46045060538778904;1.257742074198906;0.12712195458587772
A;10.8;1.7504425375644814;0.5586543692564916;1.1999822711748873;-0.1399489348215459;0.8319824062518535;-0.02730455761929651;0.8848719866307881;0.35322522087871544;-0.2769339749514206;1.9601252382869259;0.6842101675062278;0.0776628490134037;1.0171079654717214;0.47054641861793667;1.264777702788706;0.14194194049687714
A;10.9;1.7309704354115567;0.5480176186006829;1.169319819777911;-0.14738231695194326;0.833158875823468;-0.023972254499616596;0.8942028664530444;0.36252718861645317;-0.27603866034731617;1.9626055637600754;0.6852962637461708;0.09770179965357428;1.0384171660648729;0.47922027141876633;1.2689195338420731;0.15487189045378424
A;11.0;1.7111158397775652;0.5373660018289188;1.138772875326774;-0.15472863394431347;0.833361696838864;-0.020949125498739285;0.9025506568088062;0.3709793302423652;-0.274503029411866;1.9653684721080626;0.6868989081595664;0.11754385892187003;1.0574784076730452;0.4869832112523911;1.271813121942487;0.16658301814756138
A;11.1;1.6922024292037703;0.5274185299143044;1.1109862099758434;-0.16085883146293423;0.8325486847145402;-0.018206561431680868;0.9086711174331086;0.37770704763052354;-0.2721721153700205;1.9684837365642234;0.6885140917411476;0.1359655432738638;1.0749908444871759;0.4944240510670874;1.275410037183816;0.17795571452179337
A;11.2;1.67494023669708;0.5186436228932234;1.0877379448517939;-0.1650222562991175;0.8303742781976036;-0.01581561858746916;0.911145542522906;0.3817651489952354;-0.268847383423342;1.972071820318177;0.6896153646037515;0.15176772331236243;1.0912885348398138;0.5020129308935724;1.281106104949692;0.18948780088203776
A;11.3;1.6601107102065953;0.5115329090772118;1.0708717970193629;-0.16645667442134116;0.826546638548395;-0.013832117199782168;0.908634936833506;0.3822546886350082;-0.2643519606688489;1.9762335542270475;0.6896992406768145;0.16378862477100142;1.106742156616793;0.5102199357778865;1.2903395374034314;0.20171656775004276
A;11.4;1.6476518476127548;0.5059879773897906;1.0599633767152206;-0.16538565639948288;0.8212429194006594;-0.012229500662839676;0.9016201352994138;0.37949622667345473;-0.25881325176430714;1.980875996191795;0.6888694451653539;0.17230631307663202;1.1212895922857884;0.5188982904889572;1.3026775120831626;0.2144698861697394
A;11.5;1.637009084835353;0.501629704695898;1.0535515922846148;-0.1624503119199474;0.8146980602935354;-0.010983534519712457;0.8911091533283209;0.37418279675523625;-0.25243494401433964;1.9858700799017135;0.6874172754269239;0.17808003161227326;1.1346347556341323;0.5276689968420265;1.3168917444342592;0.22722853282779898
A;11.6;1.628516558952862;0.49850376121436524;1.0516538219058198;-0.15777099184367582;0.8073237750228204;-0.010000688369686372;0.8778933428956179;0.3668006523933096;-0.24543100769834858;1.9910361524164228;0.6855406155423562;0.18150382445183766;1.1468833287526063;0.536408075909681;1.332839550607309;0.2400316320872875
A;11.7;1.6224041622666565;0.4965803381009073;1.0539946735894716;-0.15158709387259695;0.7996014886113443;-0.009173693644688896;0.863011220765614;0.35800255146164517;-0.2380588566057007;1.9961674135080396;0.6835168836460568;0.18316531631980304;1.1580944470576027;0.5449124285308293;1.3501379008204841;0.25283291000411534
A;11.8;1.6179684456410444;0.4954903429212494;1.0592312138833648;-0.1443626359911354;0.7914877469405095;-0.008542718443526276;0.8468509427873752;0.3481046654732891;-0.2303909812529792;2.001246199033296;0.6814528202173875;0.1834585445518222;1.1679903075783233;0.5529408373977969;1.367784940872962;0.26514576887633723
A;11.9;1.6146241801097574;0.494948197915168;1.0663336083249337;-0.1364237218841433;0.7828739653778385;-0.008159333661549084;0.8295628067919552;0.33726221950344826;-0.222462158266989;2.006276939354841;0.679384038765491;0.18259271773914776;1.1763559532157766;0.5603411683506847;1.3850589202011596;0.2765925172148751
A;12.0;1.6113449117511918;0.49438971801369513;1.0732366614335334;-0.12850460940291875;0.7737911189390365;-0.008055260982204437;0.8119411280286961;0.32607985569483766;-0.21441273868662236;2.0112101904796327;0.6775371307461207;0.1813091897670347;1.18275857684728;0.5667000182949051;1.4003678197637681;0.286440921067739
A;12.1;1.6070567059696588;0.49323750215598205;1.0778363412207472;-0.12134502270763026;0.7642366001787009;-0.008270249284160869;0.7947292179315593;0.315133727037078;-0.20636862193923555;2.0160101396505183;0.6761299261100717;0.18033311228419713;1.1867623182678786;0.5716143843865142;1.4121186847519098;0.29395240017048985
A;12.2;1.6025898823356481;0.49181223919647254;1.081111639597891;-0.11470389433201245;0.7545995591296943;-0.008701264728894209;0.7783676238198574;0.304645715318391;-0.19851818189907;2.0204881403838746;0.6752635095034183;0.1797163172752203;1.1886958086960728;0.575178719437049;1.4209964514979747;0.29954025312453303
A;12.3;1.5992921256923491;0.49065729307968664;1.0847859271458713;-0.10812169972293884;0.7454411926619304;-0.0091914153945023;0.7633674479892711;0.29484172636349193;-0.1911027266760552;2.024389508533619;0.6750382284622578;0.17942086999341278;1.1890760040474309;0.577578060452359;1.4281877133468983;0.30389486295459367
A;12.4;1.5978725783894676;0.49009659099073155;1.089912748339879;-0.10128539601384823;0.7369556193107734;-0.009680922140312909;0.7497452056019451;0.28568305633416813;-0.18420391737392983;2.027613839147526;0.67545337757978;0.17927176639953757;1.1882736611751232;0.5790185685217448;1.4345643873206892;0.3074756461633483
A;12.5;1.5992341937640733;0.4905494519254783;1.0978765468243505;-0.09377378621932841;0.7293683056044049;-0.010096583550764038;0.7374668391266592;0.27708251824362584;-0.17790629105645017;2.0300484685651385;0.6764932958616487;0.1790160825746394;1.1867423193089266;0.5797659383560669;1.4412570454106923;0.3108715204873045
A;12.6;1.6039090685279014;0.4921513427579596;1.1089892039976945;-0.08558683267871903;0.7231448504848457;-0.010323740667730341;0.7273017927524403;0.26951051783846225;-0.17246402280661854;2.0314851671284733;0.6783009458386733;0.1789696937387415;1.1846511741625259;0.5797490005467925;1.4483261393852835;0.3142329467246674
A;12.7;1.61199570507185;0.49484424082598677;1.1229154840588969;-0.07692074622964995;0.7186335007222233;-0.01028440042499934;0.719993195810309;0.2634600348730025;-0.1680952832103575;2.0317702427872875;0.681011779504221;0.17954062079376953;1.182021069835523;0.578814147214721;1.4553669433619527;0.31747067770868775
A;12.8;1.624468889008786;0.4989632051703483;1.140634416580495;-0.06757647639033681;0.7164291891344172;-0.009821471040161178;0.7163740392595752;0.25940111089870665;-0.16509979241907757;2.030634830614163;0.6848008799550449;0.18098942832476084;1.1791776122308963;0.5769771188116397;1.462954427901657;0.3210093083967005
A;12.9;1.642147194035152;0.504777259526586;1.162917337442467;-0.05741257284363144;0.7170734936167271;-0.008792316969659097;0.7172171497440303;0.2577831165094757;-0.16375655298518588;2.0278398082492286;0.6898110340961132;0.18357098498996471;1.1763958293101924;0.5742338627847385;1.4715019104452915;0.325188088178209
A;13.0;1.6643537327199454;0.5120439700180865;1.1889872981593221;-0.04663104214621061;0.7202475844808971;-0.00727994721864178;0.7220933621768424;0.25840816829550217;-0.16394616347949054;2.0235264944028937;0.6959345157593173;0.18719278372016923;1.1736533657064188;0.5706495208736002;1.480692639811724;0.3298163536355856
A;13.1;1.69018811859838;0.5204755410773458;1.2179682202968554;-0.035425045337481365;0.7254229664804068;-0.0054175717561779635;0.7302213067443937;0.2608658386133236;-0.16544636414257674;2.017922162350717;0.7030123831986685;0.1916221254488768;1.1709195867729782;0.5663641938321295;1.4903013406171333;0.3347019937022462
A;13.2;1.7183206101361685;0.5295433829447831;1.248175229490986;-0.024252378747153358;0.732073887721687;-0.003347458714892504;0.7409474216379337;0.26489140929952537;-0.16806096653014002;2.011285694289638;0.7107888394136364;0.19674269374647402;1.1679374390645423;0.5613364721943017;1.4992521349562882;0.33925459002495484
A;13.3;1.7471989660327862;0.5386413671968233;1.277686908579593;-0.013624869667880013;0.739552667977355;-0.001243566454973255;0.753453458074496;0.27013270410394874;-0.17153630334498793;2.0039315039832024;0.718974863242174;0.20239695938461288;1.1644050251805904;0.5555320781201172;1.5063531101135652;0.3428043700550487
A;13.4;1.776734315839403;0.5478116673666593;1.3066958834046325;-0.0034497970788729404;0.7476706981364103;0.000859735427860997;0.7673594659366483;0.2763604144892744;-0.17580743858051484;1.995921852638027;0.7275415796384888;0.20842614196294562;1.1604923785593666;0.5491517799294887;1.5121309510203798;0.3455919824062612
A;13.5;1.8070544964071873;0.5571712890339602;1.3356373884833346;0.006423809712295281;0.7563625189545391;0.002962122889685226;0.7824348088745339;0.28342775734250747;-0.18087025791960265;1.9872683836539182;0.7364684174516825;0.21469749219757617;1.1563954090736575;0.5423833005522971;1.517206833340353;0.3479295618375635
A;13.6;1.8378033299061398;0.5666855168546221;1.3644654010614836;0.016047169530199135;0.7652504627931966;0.004980690676361199;0.7980394622126674;0.29094861773480485;-0.18655325762755126;1.9781148531460184;0.7457208268655329;0.22098995277783295;1.1522820186366296;0.5354779427507614;1.522089031214354;0.3500120282317043
A;13.7;1.8687234726162094;0.5763623294992728;1.3932810296840081;0.025514031797456482;0.7739920838221703;0.00684396270201848;0.8135645542382175;0.29854874238798335;-0.19270391009089138;1.9685874514963895;0.7552707569945536;0.2270792976506204;1.148336132661016;0.5286958879231074;1.5273893392876383;0.3520911145406176
A;13.8;1.8986519473006647;0.5856980593159151;1.4205085012011125;0.03438045787872479;0.7822419960189535;0.008460546988261264;0.8285518827446694;0.30610307316547036;-0.19922444932336703;1.9588984566773968;0.7647622269681769;0.23286018578878576;1.1442210565524729;0.5219044298174977;1.531817015940117;0.3535166860425003
A;13.9;1.925976813858747;0.5939707857167345;1.4438466298327413;0.04198599161801919;0.7895629713442052;0.009707221420705459;0.8424904249508565;0.31350604235467827;-0.20597723302654813;1.9493282073507996;0.7737475952321642;0.23826089180126253;1.1394371196230662;0.5148617337685484;1.5334100559048265;0.3533029805137571
A;14.0;1.950113129405282;0.6009126439872028;1.4625052417146538;0.048065475684057724;0.7958490439701027;0.010563451883283115;0.8551964832904169;0.32076043291011924;-0.21299532787815778;1.9399663720251263;0.781939044905787;0.243211742849061;1.1337431658876422;0.5074638621167644;1.5314124520959354;0.35110289441439413
A;14.1;1.9704182134113726;0.6062167862275389;1.4755703200549206;0.05245318908355401;0.8010095025148791;0.011011442731319043;0.8665174847255219;0.32790135918369057;-0.22032380075075686;1.9309059939069058;0.789013815775478;0.2476542691434247;1.1268423117622275;0.49956365141911285;1.5248914967037148;0.34648838977216045
A;14.2;1.9854374769035266;0.6092896729514257;1.4811172324859996;0.05482815975944799;0.8045079748232418;0.010905363663490597;0.8758197272402608;0.3346786922011864;-0.22771705132103115;1.9224416353571971;0.7947230254416962;0.25152231114031665;1.1184740657361596;0.4910920660435869;1.512539961926831;0.3387680040954073
A;14.3;1.994002855524628;0.6096854376378855;1.477695394734722;0.05383872491372976;0.8058477879784469;0.010114529231056046;0.8825035474730161;0.34081856374273833;-0.23493347191935676;1.9148276478967512;0.7989261689661156;0.254755295238434;1.1085175264995648;0.4820713849801681;1.4935594193177124;0.32750059611128823
A;14.4;1.9943782929599516;0.6066623328836487;1.4629247137229147;0.048568414303161056;0.8044559014897095;0.008480006424314901;0.885890886073371;0.3460873920065275;-0.2417214473421634;1.9084058251734315;0.8012360935925749;0.25726032697370904;1.0965268854414054;0.47231925551751;1.4660827229317244;0.31171763805481834
A;14.5;1.984961007709038;0.5995428810651382;1.4346127833996025;0.04278262130646482;0.7997885233123192;0.005850948768077124;0.885362320491426;0.35026210568463334;-0.24782680997983952;1.9034955565052774;0.8013442135776412;0.2589810306657814;1.082132483667925;0.4616896276867899;1.428457942705358;0.2905596275032203
A;14.6;1.966524764311746;0.5887027419314121;1.3940623401719137;0.035619995443437524;0.7920697150579361;0.0023140142586237644;0.8810892214325641;0.35339191315439056;-0.2534066972142863;1.8999602758100047;0.7993465781962357;0.2599018356418412;1.0655701941726683;0.4503612040829048;1.3818835482014062;0.2646743224754913
A;14.7;1.9404814838488171;0.5747843826907217;1.3434951382913223;0.008775918736468213;0.7817642893394323;-0.0019705032242711695;0.8734721933877996;0.3556240455642943;-0.2587593433103059;1.8975387315175882;0.7953681845399778;0.2599846501435401;1.047149512680046;0.43854592750374555;1.328159764222792;0.2350392802778365
A;14.8;1.908084620074873;0.5584027138974601;1.2848762496396091;0.003628652713971725;0.7691838073729036;-0.006894011585510285;0.8629076834030585;0.35704063234687045;-0.2640066577994489;1.8960129075925694;0.7898625368133789;0.2593880712134151;1.0274589724276622;0.4265899940498634;1.2693578515047053;0.20274052720254843
A;14.9;1.870927954240904;0.5403236757537135;1.2206710590128473;-0.01764987205867463;0.7547480606720516;-0.012314449086209045;0.8499048167996825;0.35776098819966506;-0.2693261591902072;1.895100456518013;0.783344464043223;0.25827799961099096;1.0071730767905915;0.41488559000962266;1.2079577703334898;0.16907911996297353
A;15.0;1.829631308228409;0.5208075029475434;1.1518961692776504;-0.037887833480453104;0.7387232617632229;-0.018135357616148262;0.8346268416772542;0.35787522092341284;-0.27491440621280994;1.894698641986707;0.7756555725113081;0.2565334773568555;0.9862151377378616;0.4034224229970007;1.1444617741104866;0.1343639640106984
A;15.1;1.7844894862135625;0.4999671802307937;1.0790528046923669;-0.058700227513360126;0.7212725805383311;-0.024295297280587214;0.8171699546655411;0.3574480234930322;-0.28088824204312246;1.8947698261643522;0.7666266263174979;0.25406628317950286;0.9644451092675723;0.392140999262808;1.0789590400794768;0.09868569092661827
A;15.2;1.73666217727585;0.47829746260581985;1.003986822511191;-0.07938271652833429;0.7028514765332838;-0.030635559902832732;0.7978298743615415;0.3566280645826909;-0.28758376992775325;1.8951016268684802;0.7560942917767868;0.2506989805557662;0.9418488829756049;0.3810814580059185;1.0125451059047306;0.06267038010493775
A;15.3;1.6872452244251441;0.4562578715412824;0.9284284582725029;-0.10060856500066429;0.6839051723324348;-0.03700236454987049;0.7769003906746583;0.3555659647547831;-0.2953219262845561;1.8954968342546108;0.7438746736839796;0.24625399961577976;0.9183701482059075;0.37025257015595603;0.9461653506713246;0.026867533310354075
A;15.4;1.6369895867476227;0.4342436535562453;0.8534361366954606;-0.12190137822279201;0.6645537491313087;-0.043361008507983634;0.7548021801017661;0.3543215997316782;-0.3039888081768076;1.8958455455898036;0.7306620741693468;0.2411224782419623;0.8946804946711211;0.3599763977348971;0.88138483570944;-0.007917601848952405
A;15.5;1.5867671514900605;0.41273561478010246;0.7802394069175289;-0.14248162309620227;0.6448868178361007;-0.0496879096642715;0.7320203390212185;0.35293911533655287;-0.3134051741717734;1.896015106567603;0.7174151994635505;0.23583451435791858;0.871717360396957;0.35071315506132605;0.8202794353094403;-0.040633828723375176
A;15.6;1.5368096709975791;0.39187023304535873;0.7090623023949991;-0.1623715665600205;0.6249003554438346;-0.05599279011803038;0.7088619346446734;0.3514498023259369;-0.3233594712605736;1.8960098842183544;0.7046659118299239;0.23074846849843134;0.8498905898345406;0.34261460924852116;0.7634692419773303;-0.07096240119711705
A;15.7;1.4872859280548791;0.37176233970059935;0.639999924413944;-0.18158105031915817;0.6045501005713962;-0.062301354954875876;0.6856514749813609;0.3498765090611329;-0.3335820483293972;1.8958496041230344;0.6930423060146182;0.22629039670768236;0.8296795595278326;0.33585491389468713;0.7115793668439983;-0.0985899103155401
A;15.8;1.4394391746686725;0.353031182465837;0.5749949508625427;-0.19951258138972605;0.5841225356148705;-0.06851249841416696;0.6627748142055889;0.34829025365465416;-0.34417667651605655;1.8953082646324564;0.6830770948944132;0.2226634222400321;0.8117410804651808;0.3308202843736925;0.6668116156287134;-0.12237657556008674
A;15.9;1.3945025147475896;0.33626829503576205;0.5160228255646011;-0.21558196596261237;0.5639537583962166;-0.07450474877430135;0.6405415311036897;0.34676755979595963;-0.355340135176462;1.894158736107101;0.6750511301258957;0.21991185121562395;0.7965081928337572;0.3277987452709008;0.6310793117760713;-0.14131855266622306
A;16.0;1.3537616085073978;0.32212822046063927;0.4649642696956029;-0.22922909042191808;0.5442900600587759;-0.08020108121056069;0.6194778682732824;0.34538934477768635;-0.3670462891754056;1.8921732628528;0.6698251245910054;0.21845145170805402;0.7849100834515328;0.3272734143619205;0.606861966507096;-0.1541513546658846
A;16.1;1.3184541178965468;0.3112370106762046;0.4236770669721004;-0.2399005081645207;0.5253811539884072;-0.08551884758956518;0.6000242653179644;0.3442215023974615;-0.37931905075902606;1.8891287712828175;0.6681111901163117;0.2185976118429469;0.7777571083604391;0.32968558426843253;0.596487535682467;-0.1596860758026355
A;16.2;1.288339678863137;0.30342530024958325;0.3917471265504844;-0.2477155369557975;0.5072637466885102;-0.09044772468565476;0.5821701137872903;0.3432861157412397;-0.39212776419173245;1.8851251051092275;0.669564619522097;0.2202131689158442;0.7745775613073693;0.33474564138485885;0.5988840649495577;-0.15844169311271994
A;16.3;1.262700107258068;0.2982735572190822;0.36791877492385083;-0.2530442427080386;0.4898756175958141;-0.09501984749042958;0.5658655639751178;0.3426035787755648;-0.4053248849956379;1.8803722199304915;0.6737210900650386;0.22316817330796113;0.7746590267559661;0.3419785440299483;0.6119907927372994;-0.15144363093321478
A;16.4;1.2411367109583367;0.29552179837056913;0.351823825285944;-0.2559892405366151;0.47327618076379174;-0.09919173482012589;0.5506865535669583;0.3421202359539901;-0.41914216238622615;1.8749738053315523;0.6795570577074681;0.22685146394512756;0.7770231921695165;0.3509457411744259;0.6342427459656044;-0.13945111998581017
A;16.5;1.223046933978722;0.2947984255508569;0.34277792557034736;-0.256747243619758;0.4574980089385079;-0.10292940172901588;0.5361463213277382;0.34177721739566547;-0.4338056574270279;1.869077864182716;0.6858964798734881;0.23058473851755146;0.7805063316480538;0.36110264822023797;0.6635899100596623;-0.12346764881277217
A;16.6;1.2080930630556193;0.2958949667981996;0.3398682650212468;-0.2555943081453478;0.4424825084125459;-0.10628373234904753;0.5225130299476284;0.3416329659603692;-0.4489936741258962;1.8628182023405615;0.6929576985615942;0.23463833547585367;0.7850541151295447;0.3722487021779499;0.6989977006857799;-0.10402692612124742
A;16.7;1.1961227195868709;0.29870756009969157;0.3424951613635372;-0.25271387509349896;0.42818922982321617;-0.1092964200456441;0.5100510301777295;0.34173234852747214;-0.46441726907536207;1.85627921681174;0.7010533804535246;0.23929788881233982;0.7907776412333716;0.38429440206484333;0.7399135821061478;-0.08142591727609383
A;16.8;1.1864415381777178;0.3028297238924331;0.3491024540287828;-0.2485731499952255;0.4145083029806145;-0.11204527848306789;0.4990649559073219;0.3421591150861598;-0.47965460456114073;1.849687468793118;0.7103175554881425;0.2448616010294664;0.7973856117661482;0.3968556542232373;0.78445211642802;-0.056624410583604234
A;16.9;1.1783701819092105;0.30786596960562496;0.35812326336272804;-0.24364427608968242;0.401319611774964;-0.11461412672904903;0.48987642482911475;0.34299504954071836;-0.49426124822322137;1.843263632785443;0.7209532567731731;0.25166674257842025;0.8046620153804129;0.4095793907602814;0.8308109428938355;-0.03054704112792339
A;17.0;1.1718211158011496;0.3137402088461929;0.3699553710521357;-0.23780002821315538;0.3887214013496454;-0.11691948521141526;0.4817248222879993;0.3440846102811035;-0.5087327161587574;1.836992930331967;0.7316988016384762;0.25880180751604165;0.8117007916173531;0.422215034891102;0.8782982907196919;-0.003528762116782991
A;17.1;1.166766321720491;0.3204008910943774;0.38539249999305625;-0.2307894508664612;0.376876486368662;-0.11883037845423772;0.4735509781487188;0.3452200968275978;-0.5238249383354283;1.830826072642454;0.7407877030632797;0.26497411602889187;0.817248640249657;0.43445098450338615;0.9262050819498144;0.024104052401171083
A;17.2;1.1633513628601566;0.3279081184307864;0.4050146515004709;-0.22244024660531192;0.3658648124222328;-0.1202828172343322;0.46475242648680215;0.3462521593927903;-0.5399229451732044;1.8246904599796312;0.747404321871528;0.26952102784773935;0.8208856811775673;0.4462487818517509;0.974555260026805;0.05234945437987193
A;17.3;1.1617830311474133;0.33635760001051107;0.42960804504469685;-0.21251754101920906;0.35578353070100377;-0.1211969354100173;0.45460140698544294;0.34700173534632395;-0.5575124836214123;1.818484601082552;0.7505889993273964;0.2716492708110767;0.8221399925409605;0.45759457398152503;1.0235277087826082;0.08128384856738191
A;17.4;1.1616919322762822;0.345493445332933;0.45895639429604707;-0.2010749876319693;0.3467296321711508;-0.12151049268220948;0.44262888915727494;0.3474168245234308;-0.5769030707491378;1.8123021514418145;0.749191085903611;0.2706476736609087;0.8198889764281754;0.4680091985720607;1.071547208485807;0.11014943508899022
A;17.5;1.162631567187205;0.3550144683981187;0.49243420337720245;-0.18829364955818573;0.3387584011836555;-0.12120138410846515;0.42868414562297197;0.34751492180902854;-0.598157993673448;1.806281699216258;0.7425010939014438;0.2661595116176745;0.8132545768222217;0.4770177936415114;1.1168991120036251;0.13810907712022602
