Condicao;Tempo_s;Ch1_HbO;Ch1_HbR;Ch2_HbO;Ch2_HbR;Ch3_HbO;Ch3_HbR;Ch4_HbO;Ch4_HbR;Ch5_HbO;Ch5_HbR;Ch6_HbO;Ch6_HbR;Ch8_HbO;Ch8_HbR
A;-20.0;1.808888997732553;0.08220765502747529;3.2804848214860094;1.340794423854975;-1.3147354049201603;0.13837002070350835;1.1729626181522725;0.30217523316288286;0.8710479903916877;-0.40076029539693536;1.5630001913720637;0.2678813563365954;1.7235041615948035;-0.2695990413298368
A;-19.9;1.810407884501584;0.07882065044729458;3.281839657958816;1.3421732330522955;-1.3282787759552832;0.13529737244142837;1.166173354471315;0.30256473522859473;0.8681374112369973;-0.39840961071273107;1.5545321434415378;0.267295665947497;1.7608158088436277;-0.22955827709507304
A;-19.8;1.8120428049608017;0.07586495088396461;3.2830223038033175;1.3434746058773754;-1.341313909599636;0.1322927674481873;1.1609591442669327;0.3034307376485845;0.8654208200923925;-0.3959101266918399;1.5473360426012261;0.26710231576126775;1.7990074850284081;-0.18923008600864932
A;-19.7;1.8138168005243007;0.07353732907631905;3.2842498424128355;1.3447967882511662;-1.35371292179682;0.12936807538767914;1.1578541004195309;0.304907041466997;0.8630150453766827;-0.3932273583659178;1.5418463729777656;0.26740122731299687;1.8382327400177694;-0.14850997717319459
A;-19.6;1.8157996679369268;0.07204653312903364;3.285836196902155;1.346305960574952;-1.365329988459651;0.12652447241689568;1.1577302266894627;0.3072389086191887;0.8610644059259229;-0.3902917682507159;1.5386967932763014;0.2683499575540833;1.8791177888364707;-0.10690078997027186
A;-19.5;1.818050779040319;0.0715926395259201;3.288058420463198;1.3481463979327577;-1.3760233622405913;0.1237599476510951;1.1613722912398643;0.31064304002222265;0.8597045614353007;-0.38703881368589066;1.5384718941968902;0.27009074839268665;1.9222198443490797;-0.06392927247970803
A;-19.4;1.8205220681034637;0.07210477961541173;3.290825963158575;1.3502667057739552;-1.3858271218811513;0.12108867153707603;1.1683857894351064;0.314995837907988;0.8588841342873437;-0.3835155815620297;1.54089182915994;0.2725458520773838;1.9669697638929406;-0.020211477733422356
A;-19.3;1.8231485437441164;0.07342781825995193;3.293984865248609;1.3525865267010397;-1.3948376856922309;0.11853292052870534;1.1781070987436095;0.3201032190893276;0.8585017108004234;-0.3797962877148482;1.5454466900891406;0.27558523099872856;2.0125782190508055;0.023378789007118428
A;-19.2;1.825836247279941;0.07546346564166928;3.2972674801348365;1.3549493381300834;-1.4030910752676888;0.11608823001948876;1.1897772568927216;0.32571948721266075;0.8584708809188744;-0.37594544903127236;1.551669167268047;0.2790697999874001;2.058191215035837;0.06615621096667113
A;-19.1;1.8284755510939017;0.07807560632220678;3.3003555977362975;1.3571715222138057;-1.4106485840324066;0.11375248978610708;1.2024744403062613;0.33155150298271074;0.8586797128903001;-0.3720434879661454;1.5589757233657346;0.28282928581960176;2.1028003908284134;0.10729473000933964
A;-19.0;1.8310655141490906;0.08119113918735277;3.3033221348681003;1.3593001730676102;-1.4175846055573338;0.11155447783604577;1.2160522855014975;0.3375698530132105;0.8591008384302832;-0.3681190390611171;1.5671593846670344;0.2868262748415238;2.1461969093725344;0.14640993368985278
A;-18.9;1.8336207091806287;0.08477569622092584;3.3062787567087852;1.361402570967079;-1.4239489563593963;0.10951510398303999;1.2305108812516288;0.3437871654729303;0.8597326786295181;-0.36418053673688;1.576119588801256;0.2910524061269335;2.188364208028485;0.18333880737355202
A;-18.8;1.8361182455766436;0.0886826764396842;3.309242247996197;1.3634998672760892;-1.4298624001305704;0.10767463694506896;1.2454905283377045;0.3501149546915663;0.8605029222618015;-0.3602877083237761;1.5854882566516766;0.2954239911837586;2.228825865179342;0.21737685508179894
A;-18.7;1.838543779076528;0.09277284630929383;3.3122554471149446;1.3656278927262413;-1.4354477837563948;0.10607334319444206;1.26069472663427;0.3564851922559029;0.8613504447687284;-0.3564937569082449;1.5949416626022037;0.2998680361000061;2.2672268897139993;0.24797306988647705
A;-18.6;1.8408115730775396;0.09702003970624151;3.3150078373061547;1.3676007297170925;-1.4406783484066832;0.10466693239714919;1.275485181384731;0.3626747226351643;0.8622264457049003;-0.3528195943391559;1.6041608267235148;0.304276061686084;2.303057893925825;0.27504353867301035
A;-18.5;1.8427985133683518;0.10140037331923679;3.317044113950436;1.36914630894098;-1.445494403794651;0.10339094703748364;1.2890284610124034;0.3683844832423766;0.8630657844142036;-0.34929411309305713;1.612784518928465;0.3085068657167147;2.3356109622687597;0.29848406484580536
A;-18.4;1.8444702133872242;0.1059519160634963;3.3182264179364456;1.3701733416379165;-1.4498647921773244;0.1022054391688112;1.3010992861068509;0.37352186227569284;0.8638932979729912;-0.34590013682648824;1.620782023821202;0.3125248851277589;2.365033031512368;0.3189916566325621
A;-18.3;1.8457874821988267;0.11072733557151349;3.318383267254937;1.3705693741918195;-1.4537416992626557;0.10105970906991057;1.3114341380037509;0.3779788626774039;0.8647322123525818;-0.3426135394352876;1.6281002756548855;0.3162922946661113;2.3914368966264092;0.33726079293431965
A;-18.2;1.8466332305930093;0.11561424020276867;3.3171676362210025;1.3701368723105967;-1.4571349072585313;0.09993587538529392;1.319304424702672;0.3815036690141298;0.865492314364694;-0.33950437788720755;1.634420152594254;0.319661321103462;2.4140102559369367;0.35282971500544846
A;-18.1;1.846913816856429;0.12048470241263853;3.3143500084641033;1.368749142845056;-1.4600874972603979;0.09883963337535251;1.3241892674452096;0.38391663103468154;0.8661041300053487;-0.3366468268583631;1.6395609558804098;0.32250944886516963;2.4321851115208197;0.3654628494032828
A;-18.0;1.8464881984314465;0.12523891128154307;3.3094358960007533;1.3661215565430407;-1.4625752402794099;0.09771957806526066;1.3250353847597154;0.3848639857821894;0.8664286625051787;-0.33409967751707903;1.6428975070726368;0.3246516977263165;2.4447000806071095;0.37414944514010173
A;-17.9;1.845224717402023;0.12977188936381978;3.301991053644681;1.362005819812814;-1.464583107598168;0.09653766321314228;1.32086712222889;0.3840213343894838;0.8663245629316592;-0.3319259440961524;1.6438155474092158;0.32591357221266204;2.450243233786935;0.3776399338597649
A;-17.8;1.843203885893168;0.13413072846289076;3.2923722405003417;1.3566008826662541;-1.466175432968706;0.09532604170184822;1.3123857047557443;0.3816126447216668;0.8659266311357214;-0.3300855400126732;1.6428584263706494;0.32639322543752414;2.450117747232987;0.37775217313491183
A;-17.7;1.8405641063065694;0.13842395375077032;3.281100541841891;1.3501961337359738;-1.467420281981516;0.09411510364588471;1.3005371447177048;0.3779542395841169;0.8654125243241442;-0.32849250137889463;1.6405906855568881;0.3262499881227465;2.446034619827053;0.3765312247667758
A;-17.6;1.8374172435599727;0.14266690262162296;3.2687831758594026;1.3431424988228207;-1.4684198599774323;0.09300102819711764;1.286315378217406;0.37338250065541523;0.8649002728693169;-0.32713725414441086;1.6375794400820887;0.32561935851208546;2.4389575462330555;0.37449954332471336
A;-17.5;1.8339047188703614;0.14689434195785456;3.2561379383238247;1.3358538254384218;-1.469288357333559;0.09209014196160092;1.2710633591200633;0.36833838207780367;0.8645632498322904;-0.3259960446674235;1.6347278911493142;0.3246815121633224;2.430413567712094;0.3731676655038818
A;-17.4;1.8300918548779226;0.15119026867200525;3.2432981763410016;1.328398318075772;-1.4700306148694473;0.09134480698412162;1.2544866079630772;0.36277963196621954;0.8643580999806915;-0.32498298075583065;1.631219997168949;0.32345580987933387;2.4200249049499156;0.37105489327750973
A;-17.3;1.8260103300297967;0.15560946778322648;3.230281297217969;1.320780982967003;-1.4706328275847866;0.09072007160776119;1.2358795158019404;0.3565456606605224;0.8641231544320078;-0.32403193595421165;1.6257250586937921;0.32189811696570647;2.4061879718206463;0.3647691950058487
A;-17.2;1.821777451221375;0.16028974668712337;3.217379272819441;1.3131557524313102;-1.4711197778210146;0.09018098130063557;1.216216326049711;0.3499281587279466;0.8640518858183697;-0.32301762174089177;1.6191182763903313;0.3201484408345632;2.391061989906934;0.35855835964035165
A;-17.1;1.8175026867457564;0.16536567543909975;3.2048358372138637;1.3056499816041338;-1.4715042996785588;0.0896832222920767;1.1960664729274981;0.34311488248194166;0.8643167637005895;-0.3218136076983402;1.6117930307580313;0.3183350872470334;2.3766322858240017;0.3554595090082593
A;-17.0;1.8132285868819564;0.17075587695797356;3.193120437022076;1.2985508734800018;-1.471856075351896;0.08934757866233012;1.175738558345813;0.3362860327308148;0.8647266277202021;-0.32048369344319383;1.6034083948415292;0.3164614068915812;2.3605539211287443;0.3511818261646198
A;-16.9;1.8090016988025523;0.17633601871617355;3.182862536271278;1.2922431977795918;-1.4722820813266217;0.08935264823246936;1.1569474690625938;0.329851529315663;0.8652433185405322;-0.31913568154430116;1.5948567043298754;0.3146013094757598;2.341991048206655;0.34440054694441
A;-16.8;1.8048128473348295;0.18199971619927702;3.174240350735051;1.286851381696592;-1.4727945108655938;0.08976740922917248;1.1383344715422261;0.32333328479476897;0.8655648092270241;-0.31783414343119;1.5828127763288062;0.3126805198130165;2.3176664631726;0.3233971606618624
A;-16.7;1.800639736140735;0.1876130866470307;3.1674317455713688;1.282504170760057;-1.4734042741584332;0.09067584213567415;1.1143164566122152;0.3163144209000759;0.8652046605389128;-0.31666586766476357;1.563975653165902;0.31055780370193453;2.282280336264982;0.27513375742886836
A;-16.6;1.7965846561095;0.19317290888490835;3.1630739596083686;1.2795715833839552;-1.4742304231904377;0.09219535053419126;1.0873459275024118;0.30971642283119927;0.8649972125650969;-0.31564034845116673;1.5432652086363916;0.308628437972577;2.2446359463478984;0.21510366383533963
A;-16.5;1.7927584395285465;0.19872340379691966;3.1617039880669555;1.2783589383416567;-1.4753750985003293;0.09439550540624664;1.077123589341003;0.3043640522303921;0.8659559914360511;-0.31472118066951005;1.5255391849276672;0.3073425598469468;2.2156510963881466;0.16072239479793993
A;-16.4;1.7892415556766397;0.2041965238523833;3.1640294548938854;1.2792895413233367;-1.476954511590689;0.0974453273617204;1.084321326559749;0.3016792588073969;0.8678318605383115;-0.31397463370359446;1.5162458589027228;0.3067211909783891;2.1922154599693897;0.12151917028294434
A;-16.3;1.7861151946099771;0.20954602463601368;3.170701209378004;1.2827497649933983;-1.4790821069167759;0.10149102059254655;1.0425699486943039;0.30313088877070626;0.8708884551784806;-0.313446179578321;1.5221179411893448;0.3069605925265946;2.1768628185853807;0.113616326018807
A;-16.2;1.7833441503154706;0.21477827706747732;3.181324119604996;1.288519710215537;-1.481661256233167;0.10641361317103737;1.102519548665132;0.3075985794239262;0.8747919501702892;-0.3130676478200751;1.5373459699426846;0.30791461515502494;2.1667283370015973;0.12266181772167428
A;-16.1;1.7808349078721275;0.21987015612325056;3.195186344261163;1.2962056743493244;-1.4845149583132073;0.11203936871461684;1.1110644001883792;0.31343465526895997;0.8783151843742338;-0.312773414348122;1.5523923438220733;0.3090841535003941;2.1494782448569225;0.12027702492090242
A;-16.0;1.7785715095282264;0.22493904976549928;3.211714094511132;1.3054612641630277;-1.4875592878230393;0.118157028202174;1.1285162511584694;0.31959921046752626;0.8843140557080797;-0.31239815406703997;1.568047144450908;0.3114315124463909;2.1571317662968745;0.1285333841141636
A;-15.9;1.7765223283884417;0.23011109983294364;3.2301837522079193;1.3158531329484653;-1.4906802986264118;0.12451691721729174;1.1431074193066664;0.32475085654572844;0.8948947622300967;-0.3117595582701753;1.582412579465589;0.3156309102616284;2.2137638266608626;0.1595404077368201
A;-15.8;1.7745709487923118;0.23525847646896558;3.2501443324163635;1.327159923783583;-1.4937130366448983;0.13106742465560917;1.1559721998515364;0.3289810221785281;0.9074733802863246;-0.3108969949164777;1.592070102503726;0.3207467474466723;2.291769949819372;0.18911816201218556
A;-15.7;1.7726106969008493;0.24025005231697083;3.271272172300126;1.3392329027617675;-1.4965236613457424;0.13779226583844206;1.1662502523995357;0.33313923513076205;0.9202525353411062;-0.30986401668859465;1.5987714183507782;0.3261403272600476;2.371875594501052;0.2098645699092927
A;-15.6;1.7705010262264362;0.2449465216714799;3.292893615765518;1.3517269553013325;-1.4988897856667425;0.14458908393740177;1.1705764691124685;0.3362879320648382;0.9257425811063396;-0.30869186912320323;1.5849952112140526;0.3290851850094878;2.373707302763826;0.13779934177106412
A;-15.5;1.768090536290464;0.2491931484144425;3.3143409137024964;1.364303702606466;-1.5005848047807557;0.15136879298646333;1.1676998031189463;0.33776698838765995;0.9169744806177373;-0.3074267319413142;1.5356465086823672;0.3270464535976232;2.2224538968213103;-0.10381162595072624
A;-15.4;1.7653986014953111;0.25317376251489776;3.3352391171970126;1.3767122627575912;-1.5016190437000514;0.15794988389868392;1.1619794280156945;0.33860429302731987;0.8997028977980097;-0.30587733331766387;1.4672195049386927;0.32203207395683764;1.9813018082699578;-0.43644237210191505
A;-15.3;1.7625038033373701;0.25718436741650486;3.355238064058824;1.3886899355482774;-1.502061618285138;0.16409617544192123;1.15699153115796;0.3395867396178289;0.8806789454269168;-0.3037656939229283;1.3966155124966422;0.316387003743527;1.7245582149652137;-0.7718060972734122
A;-15.2;1.759384395206694;0.26132822746003903;3.3740893436527895;1.4000761741872143;-1.5019163919157936;0.16971310525902306;1.1633572470322449;0.3430928335666863;0.8705150893309401;-0.3009812924898174;1.3563170877030162;0.31390433717163013;1.567520007383834;-0.9748481035269876
A;-15.1;1.7560351856624983;0.26574280197273215;3.3915852541004554;1.4107253235858535;-1.501215019488507;0.17470147208435938;1.1914525560370564;0.3514653078798311;0.8800120360911112;-0.2973927600185444;1.3788154528654903;0.31844040551700203;1.6274823943307055;-0.9072923107068647
A;-15.0;1.7524996360277325;0.27060036187967373;3.4072458650115127;1.4203301562845247;-1.4999263911323961;0.17883669304722982;1.2343350317233615;0.3630577720653445;0.9033620615188482;-0.29280254674979567;1.445206169540577;0.3278270550585116;1.8432160114941745;-0.6403855842696657
A;-14.9;1.7487822277226246;0.2759827753245556;3.4205597320393526;1.428586751582209;-1.4979649978731686;0.18193083879192073;1.2825836584012293;0.37566235537402193;0.9317599970246828;-0.2870811750081952;1.5282110670996651;0.33883413241262605;2.121008478374513;-0.2872739030417506
A;-14.8;1.744964232599464;0.2821683528609862;3.4310734147437696;1.4351769553612836;-1.4953655601311908;0.183720889788213;1.3251956149118271;0.386710203824963;0.9563666309712087;-0.2799594768877469;1.5981050518573108;0.34817147984528996;2.3666183861533447;0.05161348801783561
A;-14.7;1.7411247358033881;0.28939795657333534;3.438368385242361;1.439811514795169;-1.4921475210814403;0.18396512636043116;1.3503696295476004;0.39345196833391505;0.9675864149127928;-0.27119881285614333;1.622829310220876;0.3522897896689954;2.477662314790475;0.2635619229209638
A;-14.6;1.7370926405597826;0.29744166252120685;3.442223210229306;1.4424226430207083;-1.4881524338861034;0.18275534552240646;1.3622227932950821;0.3968218834659467;0.9688043589908677;-0.2609619942883814;1.614069638236728;0.35245874663110177;2.490559888261714;0.3753454419799347
A;-14.5;1.7326327501755285;0.30598143426492275;3.442497471004435;1.4430080500562585;-1.4832066368012047;0.18027133094785208;1.3686405687830323;0.39863520908068395;0.9666256954677248;-0.2495003727011973;1.594012528950575;0.3511346083863165;2.4757385540804506;0.45409226472800057
A;-14.4;1.7275792992026595;0.31463039560576345;3.439124427028384;1.4416267624339287;-1.4770839059178797;0.17668486475320933;1.3749793869896507;0.4001116204989792;0.9652165810192006;-0.237096757865908;1.5775374334123144;0.3499301185323076;2.4785167506856105;0.5232743404557318
A;-14.3;1.7217317330711763;0.3229348350675254;3.4320645093279456;1.4383683703013936;-1.4695335750300753;0.17221595979746418;1.3874162922544357;0.4026655647219126;0.9693330877835464;-0.22409240790118012;1.5816481687093358;0.3506897834373821;2.5504044907395276;0.6144386306676601
A;-14.2;1.7149593557394964;0.33082169569717035;3.4212009920891013;1.433184235186654;-1.4605196295384957;0.16692871476498405;1.4042398498876132;0.4059262306692961;0.9775181651574343;-0.21056454805193603;1.6015151888346981;0.35288772151508896;2.67416995549463;0.7221719166177039
A;-14.1;1.7071938666305666;0.3382916007270049;3.406470702220341;1.4260392153620725;-1.4500478398667518;0.16084540328797603;1.421259659672078;0.4089542222816398;0.986317777895886;-0.1965337933943765;1.6255078241035452;0.35526260897349404;2.811161680895246;0.8232704305004788
A;-14.0;1.698211570927742;0.34517292711248526;3.387697168871515;1.4168712287906562;-1.4380382871183244;0.15410287121687283;1.4369527329990355;0.4114308632484516;0.9943718258448886;-0.1821638905786731;1.6492132768730983;0.35734238359151504;2.9449654408933057;0.9253097130884242
A;-13.9;1.68781112787422;0.3513271096359656;3.3647437849362944;1.405632306495126;-1.4244378144821717;0.14682940340712225;1.4495291460400637;0.4129801864912963;1.0001204314331567;-0.16759942116297388;1.6674538573830802;0.35857520147812183;3.056887621645089;1.0352498217403294
A;-13.8;1.676012794684052;0.356461617725512;3.3378506088152573;1.3925351212562083;-1.4091018214027464;0.13914998089974606;1.4592137252782926;0.41364765034726325;1.003691616834141;-0.15305698741452645;1.6812565656156737;0.35912252507347775;3.1495048869440545;1.1471842083343766
A;-13.7;1.6628437306207178;0.3601751155142754;3.307273753513174;1.3778285851504943;-1.3918160269548157;0.1312185099221037;1.467008995231975;0.4136416067854025;1.0058593204993649;-0.13882047682764131;1.6940449822452592;0.3594207463457004;3.2335326314487567;1.2572047359807286
A;-13.6;1.6484343564425221;0.362366114739304;3.2733755192586127;1.3617472633501189;-1.3725636298951756;0.1230840410581111;1.4730497098322601;0.4129974459971777;1.0067298143581294;-0.12497928228110844;1.7064104604298107;0.35957280475906916;3.3107272633303637;1.3532599475429308
A;-13.5;1.6329546523105374;0.3629314342802932;3.236600271010875;1.3445739919930197;-1.351333240518061;0.11479330259892118;1.4774487768517055;0.41174339961173345;1.006402537758703;-0.1116228924236502;1.7189409596268996;0.3596879759203566;3.383045116989564;1.422063331602132
A;-13.4;1.6162315468611386;0.36145262850052085;3.1967845166221736;1.326313557621119;-1.3278790654690287;0.10653055445513582;1.4794406614614743;0.40968600579832426;1.0042348254930111;-0.09906066653720202;1.7301231414306262;0.35965228152698314;3.445591375927947;1.468652021458734
A;-13.3;1.5980438656236156;0.3575744972540562;3.153633905564252;1.306876724310425;-1.3019895353329645;0.09846637011612858;1.4780769995539025;0.4065970617469947;0.9994396726524091;-0.08756613785946143;1.7377773683571753;0.3592639717901176;3.491355102629935;1.5013731336903007
A;-13.2;1.5783193518408218;0.35083070097602675;3.1073069050653217;1.2864691577985896;-1.2734230591176097;0.09081196693829607;1.4725964732141037;0.4022853322522266;0.9913563583629408;-0.07748520157511862;1.7404835074148108;0.3584437213052243;3.5155819374038373;1.5265438997291412
A;-13.1;1.5569474664270588;0.3407827621044497;3.0578410264834286;1.2652186583065745;-1.2419435716044092;0.08376527185150184;1.4622451248040775;0.3965583559052117;0.9793545902766123;-0.06914425875086927;1.7368436574491266;0.3571018542864399;3.513862777819;1.551617677132782
A;-13.0;1.5340285672405405;0.327691734229405;3.005385211742807;1.2431375708366312;-1.2077633407365695;0.07727257351931893;1.4473798099476909;0.38953488162640504;0.9637558287973285;-0.062414098189391254;1.7273407358802908;0.35526814080158076;3.4879834955058833;1.5740675631954204
A;-12.9;1.509819378388118;0.3120304257775999;2.9504167596583333;1.2203771020449805;-1.1712599657587255;0.0712137455673969;1.4287907136458031;0.38145629151971505;0.9452196755413613;-0.05703189085522631;1.7132699663714597;0.353047910467414;3.441969056677131;1.5882370883656236
A;-12.8;1.4841937203710116;0.2941361034765695;2.8923955091383373;1.1965286529997519;-1.1326171168663706;0.06547911146122143;1.4067303045820125;0.37239514304553545;0.9241027455507886;-0.052804287208278566;1.6949679409178566;0.35039494024559215;3.378387463417063;1.5927300126937922
A;-12.7;1.457055048701764;0.2744468988646256;2.830781276938353;1.1711562437225602;-1.092084861341915;0.05992455195127411;1.381597545569214;0.36246607222344807;0.9008876698994648;-0.049473548188689875;1.6729849628885693;0.34727613438930494;3.3006177793785376;1.5858351399426311
A;-12.6;1.4287939051656502;0.253247072228719;2.7667037861995;1.144846123474058;-1.0499919116570364;0.05452807941186144;1.353956819540013;0.3518576880542561;0.8759679140816647;-0.04691280755021765;1.6482534209107005;0.3438037630810409;3.210367671416769;1.5670680430887316
A;-12.5;1.3997458969823806;0.2307174666685885;2.701247386513103;1.1181872203388838;-1.0065933364206305;0.04930051880863173;1.3241701978891882;0.34069710910866036;0.8495864875959835;-0.04505932703972526;1.621420821012583;0.3400607945566563;3.1084885748839852;1.5374151690940145
A;-12.4;1.3704340930972099;0.20732799369945099;2.6356485553641384;1.0917705532533954;-0.9623633744844753;0.04416580819147242;1.29314514433635;0.3292794441265503;0.8223869298625139;-0.043674451725909336;1.5938181573456225;0.33621342824003797;2.998232490771027;1.4961749369605855
A;-12.3;1.3414028199732524;0.18353390966530458;2.571248191384772;1.066254214772079;-0.9177771097896361;0.039057045111957844;1.2617852974014951;0.31789781323324995;0.7950013438861809;-0.04252985447960356;1.56680599229818;0.3324330731542062;2.882750513624167;1.4426793147999568
A;-12.2;1.3122202645036913;0.15945934784016025;2.506834287924937;1.0408972270082284;-0.8728031218507368;0.033904005772812607;1.229745734733342;0.30642820462098896;0.7674353302758554;-0.04154932481656992;1.5398997734343185;0.32854759719382853;2.7633682411601654;1.3793385234109081
A;-12.1;1.282194016748584;0.13520424551764698;2.4403134734253698;1.0144428921485877;-0.8273086456915628;0.028611352781645838;1.1964365392814145;0.29466415889812225;0.7396008315372757;-0.040657540315592655;1.5121089142176114;0.32429874089007305;2.641517392811565;1.3096115648300994
A;-12.0;1.250987643173063;0.11075996359213391;2.371052213675304;0.98653680126744;-0.7812298267826119;0.02317790847464618;1.1614301928050175;0.28245672862390236;0.7113756412498624;-0.03986932677297794;1.4830083883488046;0.31953632865532455;2.517308815268347;1.2354146297957378
A;-11.9;1.2181569711271871;0.08607341567691229;2.2981586459102594;0.9566856984238523;-0.7344429576767482;0.01760437892464095;1.1241511305083485;0.26960649840147966;0.6825591786996927;-0.03922070470083838;1.451974602000667;0.3140719763500033;2.390610905965854;1.1590774379833633
A;-11.8;1.1834766147208238;0.061473877563133605;2.220277643773885;0.9239767678661757;-0.6870953674748854;0.011773447993541186;1.084715608175184;0.25614906130098447;0.6534311147072049;-0.0385248208663338;1.4186230268299092;0.3078203445876273;2.264435518883481;1.0840902927843459
A;-11.7;1.1469749232876145;0.037348553086122394;2.1366784760096955;0.8878436891871626;-0.6394531338096989;0.005582796433353909;1.0435405162037341;0.2422229265325715;0.6244001365362042;-0.03757526495320995;1.382942164332408;0.30078489915752016;2.1420326352360988;1.0132681541574868
A;-11.6;1.108118116879564;0.013960244948719946;2.0453115864079017;0.8469877802733183;-0.5915215956328996;-0.00110920216947763;1.0003868448368607;0.22773528404758991;0.5955974632631165;-0.036202504924826684;1.344193867925533;0.2927745461562834;2.026226636029584;0.9507927887484122
A;-11.5;1.0664911959234789;-0.00840994998518596;1.9443529378929707;0.8002294672427119;-0.5433568050928326;-0.008432650176671164;0.9551580076083184;0.2126454359882981;0.5672013751270111;-0.03423595559703152;1.3017265897214525;0.28364204932607207;1.919872136791497;0.9007027722161745
A;-11.4;1.0225810452488528;-0.02971742392831178;1.835525225486057;0.748578347385136;-0.4952129632532163;-0.01628678580054066;0.9082485589541349;0.19708567046084724;0.5393596876860602;-0.03171106280054303;1.2563110932040784;0.2735189633478585;1.8226963623573802;0.8620039657391487
A;-11.3;0.9769581255125979;-0.050049357319831955;1.7213578312515256;0.6935733517303824;-0.44730649263160416;-0.024510706362401713;0.8599548189574122;0.1811498411158361;0.5121005930226961;-0.028746519824940364;1.2090310679054594;0.26255459919700197;1.7331694413109524;0.8321909870742736
A;-11.2;0.9306424788948746;-0.0692568088481913;1.6044825034173567;0.6366892271235027;-0.40012941633117016;-0.0329585663528662;0.8113339971890703;0.16521714130952425;0.4858036624740514;-0.025362057627564383;1.1609801061929952;0.25107798880651266;1.6512961448184669;0.8098951527259466
A;-11.1;0.8847865943877156;-0.08722212197859758;1.4879841631137136;0.5796807050177115;-0.3542035532432948;-0.041452775679920784;0.7635230808341653;0.14969428952063168;0.46084855902662625;-0.021604563129233867;1.1134239769274155;0.23946017680398324;1.576672960279783;0.7930645931779878
A;-11.0;0.8393281843495943;-0.10407882888841691;1.3729020026407355;0.5232187368166681;-0.3094947052000663;-0.04992660821178285;0.7162105188780856;0.1344499593961892;0.4370605736491733;-0.017569326554164988;1.0668901684846555;0.22764466729733712;1.508092211579104;0.7803909612867379
A;-10.9;0.7940847315951722;-0.11992638244844933;1.259751168976484;0.46763837026582955;-0.26594099501124724;-0.058347876798606535;0.6690447446760324;0.11934132208513937;0.41426739975365123;-0.013324696086494114;1.0216729897089456;0.21554445269624622;1.444765186546828;0.7713527593491953
A;-10.8;0.7491215783166183;-0.1349904962904951;1.150084535456843;0.41397097026251295;-0.2235043518113713;-0.06659452390746301;0.6216842564723954;0.10422044886004933;0.39223682673485705;-0.009022422652979145;0.978449946362991;0.20313094035525125;1.3846422046871893;0.7635155438573769
A;-10.7;0.7044185069579552;-0.1495125426009789;1.0452686429294609;0.3631385191581824;-0.18210649523615885;-0.07455595240989954;0.5737018440379487;0.08890818884823659;0.37069719788949307;-0.004817026138004721;0.9378185561889314;0.19034992123805328;1.32561709137752;0.7544987577522058
A;-10.6;0.6610336482805774;-0.16320282804201103;0.9469842798945791;0.3159377010698492;-0.14230987051784894;-0.08214261218915686;0.5264841287012381;0.07391860160048935;0.35016627418711543;-0.0006575151027412574;0.9003035393086796;0.1775849390047588;1.2688463493331028;0.744915556200759
A;-10.5;0.6204650056165266;-0.17562877771759844;0.857183644996784;0.2732573444883091;-0.10490145493350234;-0.08924314635904906;0.48202030911560456;0.05999214672379338;0.33141663625108286;0.0035554424346404545;0.8664233182862917;0.16538036205934326;1.2162807344709883;0.7359465857193932
A;-10.4;0.5832834777532812;-0.18654731128243363;0.7765673782248221;0.23531378229607824;-0.07024345450421521;-0.09584313085415097;0.44123503062228053;0.047473572233670325;0.3147893191411537;0.007880894027140428;0.8363690445078884;0.15396854396677107;1.1690962497126982;0.7286708191819464
A;-10.3;0.5501470371218633;-0.19566444962866125;0.7057887742384477;0.20226020819728419;-0.03874979109117582;-0.10193561247373761;0.40522529128151774;0.036774613587812865;0.3006966114950913;0.012399393989465324;0.8102872496215028;0.14362236822851493;1.1287990603465232;0.724518722182868
A;-10.2;0.5222461472831417;-0.20278606692725276;0.6464348137976632;0.17495390277305134;-0.010975770011443231;-0.1073664014448994;0.3752749392540835;0.02835848211866221;0.2896172078699628;0.01711970369837701;0.7884551254909589;0.13473240772835826;1.0959263133142407;0.7233057189440046
A;-10.1;0.5004431845265653;-0.20784666481609637;0.599708942263419;0.1541077154356305;0.012704249423205027;-0.1119894163090347;0.35216529744919356;0.022495814337473163;0.2818236952880575;0.022008868097476153;0.7710184918015512;0.12756081935639774;1.0703196212707908;0.7242617280171082
A;-10.0;0.4862692890771454;-0.21053292542232782;0.5676100427113511;0.14072569687375136;0.03157016920170719;-0.11564720862959099;0.33773107978789696;0.0198643450503031;0.27799397742630383;0.027113292956562063;0.7584000537659019;0.12264481965218277;1.0531098656948288;0.7276941239836319
A;-9.9;0.4811057636543996;-0.2105834815366867;0.551803315380667;0.13565842364364045;0.04498360148589953;-0.11818777493655741;0.3335728356378347;0.02105076715481502;0.27872444095435966;0.032468741849482896;0.7508741386704667;0.12045934745239428;1.045229298373851;0.7337734592731593
A;-9.8;0.4841172254784425;-0.20818638056751215;0.5510303421827967;0.1382084455139605;0.053309945581037965;-0.11968984395845172;0.33871927147642467;0.025681013650768136;0.2835821414239774;0.038016204772803874;0.7479916640991977;0.12072598259212963;1.0457425748349714;0.7420930827420307
A;-9.7;0.49393971397299596;-0.20360364259679198;0.5634650793205527;0.14732727951187385;0.057148051466048955;-0.12030955294551227;0.3517021636353235;0.033202970988778446;0.29191398208462793;0.04368705750775703;0.7492596522829587;0.12301085662529765;1.0534358942170954;0.7523285092215701
A;-9.6;0.5091675183276649;-0.19723132943331567;0.5865166727656543;0.16172934882276735;0.05717021286934276;-0.12013253026469073;0.3705844169088408;0.042862973571850205;0.3029747731200896;0.04938019293668461;0.7536123427372274;0.12677908601188648;1.0666241468159967;0.7635408285874448
A;-9.5;0.528073622475127;-0.1895351073806495;0.6171305954146931;0.17989231146623297;0.05419862850779289;-0.1192773250079564;0.39305164586596675;0.05376643040882989;0.31586659823831376;0.054979612948068635;0.7598495118788477;0.13138687667479676;1.0833259846068017;0.7746796845493797
A;-9.4;0.5501827345192369;-0.1805566602345925;0.6550094553399823;0.20149013300996188;0.04844669809483548;-0.11784834570279656;0.4188816486805358;0.0658437229460187;0.33038167558895104;0.060472683240551106;0.768094871930975;0.1367532811083887;1.1032503590641447;0.7859083278133596
A;-9.3;0.5753352686495261;-0.17028249390971162;0.7001777228434918;0.226371962052891;0.0399995524046215;-0.11591459827337003;0.4481934436430528;0.07915173658781072;0.3464623316446467;0.0658644885637365;0.778533350775076;0.14289938910805589;1.1264113966406235;0.7975119862775841
A;-9.2;0.6025535945974325;-0.1588313842657465;0.7516765878312626;0.25386367687597833;0.029279436808710813;-0.11364820731408898;0.48026967955728495;0.09344097638193993;0.36367170800497206;0.07112178711949646;0.7911067493323065;0.14959392304705688;1.1521098445007212;0.8095752541592205
A;-9.1;0.6309541595471329;-0.14630021260242287;0.8087216154804278;0.2833751559468478;0.01667569901462329;-0.11121750017578291;0.5145305759734029;0.10851627330364444;0.38162327379438743;0.07621973468744869;0.8058457273647095;0.15664474964875552;1.1797643085186884;0.822260100987048
A;-9.0;0.6595606075549179;-0.13307792076256408;0.868468155808138;0.3135943133321426;0.0027404921851825748;-0.10862416219238513;0.5492657045412663;0.12369330602605011;0.39976084193799366;0.08108352401234953;0.8213221225943057;0.1636053468771328;1.2080867954217318;0.8347254174343064
A;-8.9;0.6871179829658329;-0.11968517294559522;0.927031539373349;0.3427982299744414;-0.011829907796169437;-0.105846610450961;0.5821441151327917;0.1380353738794149;0.41735308093390877;0.08560721494915846;0.8354855321586081;0.1698701488540557;1.2353124135880904;0.8457173188686902
A;-8.8;0.7132982673225081;-0.10636310971076224;0.9828751366680386;0.37030621268710817;-0.02673982413312892;-0.1028466864589408;0.6123536715666802;0.15120818006868575;0.4341720877399471;0.08975925419199271;0.84752856727963;0.17524881815665605;1.260829666427977;0.8547472965401539
A;-8.7;0.7378020389293951;-0.09337722928004943;1.0342941665157355;0.3953881726935453;-0.041687787486131;-0.09956535622589469;0.6390064405727571;0.1628427205700973;0.4499930624431201;0.09350696495819477;0.856514247526591;0.17953741051113425;1.2840069939706247;0.8612535201069882
A;-8.6;0.7591062326305194;-0.08117410356024912;1.0776180853460513;0.41637565293748224;-0.055946324977057316;-0.09608552260513825;0.6599171242503559;0.17208471449483476;0.4639924663106729;0.09673874519706871;0.8606376510606362;0.18214143381936676;1.3029682871027504;0.864199261302609
A;-8.5;0.7758063739897598;-0.07011088996180792;1.1098446565022506;0.43188410027474333;-0.06886736302615937;-0.09252344317570671;0.6733057402195364;0.17824981509622617;0.47542883708321604;0.09935712306772437;0.8585031867542714;0.18256715085884423;1.3160477427850275;0.8627828361196812
A;-8.4;0.7862597718438895;-0.06073857326757093;1.1265742031026083;0.439936959447607;-0.07962044270840174;-0.0889226969443131;0.6765270654858178;0.1802923962776628;0.48340355639110477;0.10124372799861447;0.8478968937350357;0.18010804493155685;1.3212209718421946;0.8557715202834828
A;-8.3;0.7888958771556793;-0.0535606351182798;1.1237188471645077;0.4387112650958507;-0.08743009817033531;-0.08534003758112085;0.667146066329547;0.17725380185629902;0.4870580603207788;0.10228331982048289;0.8267607048454053;0.174111334960239;1.3165295333371425;0.8420012753806212
A;-8.2;0.7843098860796718;-0.04842669219547968;1.1029395785298703;0.42895900299296663;-0.09245625285101156;-0.08179927295914835;0.6463307182295317;0.16960765464821925;0.48669909121700883;0.10252576940986913;0.796102841546257;0.1649089833186581;1.3025864864199654;0.8219808036739664
A;-8.1;0.7737710871057533;-0.04503120689621376;1.0674224231282246;0.41210828054835247;-0.0951116399118046;-0.07828358151467629;0.6161753974406601;0.15818927298960972;0.482993335881563;0.10207680360378646;0.7577489860440547;0.1530952230317082;1.2808404836978617;0.7966975322777436
A;-8.0;0.7580825751895288;-0.043029193666709986;1.0199809512500089;0.389479292824646;-0.09577496469309743;-0.07488409638727056;0.5786489483769905;0.14380588397511396;0.47636208517314316;0.10098700901833446;0.7132536936956875;0.13920041567329378;1.2520354549154113;0.7668719807657425
A;-7.9;0.738351125945929;-0.041982396445712666;0.9642421389503024;0.36276261869595317;-0.0949564753979022;-0.07168853025880884;0.5362314083229052;0.12746857974269865;0.46739108097556503;0.0993306734023065;0.6646064361770669;0.12389425714273283;1.2172792373697945;0.733463840423493
A;-7.8;0.7152659457059842;-0.04184452120790816;0.901413497889596;0.33246892426329744;-0.09274984553366217;-0.06863202178314687;0.4896753647352554;0.10946760754719875;0.45644115128859575;0.09718417161108839;0.6126058770806297;0.10742065714404081;1.1774797396179757;0.6969994701583069
A;-7.7;0.6892057194361598;-0.042649108151706194;0.8318568470628929;0.298759611952228;-0.0891375127700389;-0.06565666862366948;0.4392330885021174;0.08989457083275632;0.4437054098272881;0.0945979389059417;0.5575964240997378;0.08988721857431425;1.1331654972313814;0.6577546298431507
A;-7.6;0.6614168866864341;-0.04422513623025903;0.7580011370810489;0.26273524736862264;-0.08440282297939028;-0.06267157218540875;0.3864685008997881;0.06935999788242952;0.42984349624368257;0.0916960560423874;0.5010919427542087;0.07176501588471318;1.0859248799742502;0.6166674586255851
A;-7.5;0.6331064400650463;-0.04642220396805019;0.6824618977371362;0.2254152521463091;-0.07880997563306913;-0.059577120347735324;0.3328174451438528;0.048421349062858;0.41549579119920566;0.08860188163323279;0.4445120107366014;0.05349041594180548;1.0373304222860043;0.5746459837982414
A;-7.4;0.6044456492561219;-0.04895942928121855;0.6068524715622505;0.18763344088629097;-0.0726253366359142;-0.05652326994376988;0.2795265284399342;0.0276087761124586;0.40073892647261644;0.08529830557222873;0.3885742466704256;0.03538697620147868;0.9872365663950156;0.5318848580354185
A;-7.3;0.5755091083991131;-0.05146320413559735;0.5316881941118208;0.15042864268263045;-0.06618579885477871;-0.05373399030504178;0.22815598384454105;0.0075930925102927205;0.3855940178529149;0.0817430639239678;0.33409311545656095;0.01783541035949021;0.935216920849264;0.488526015278417
A;-7.2;0.5460819750602606;-0.05381519410317104;0.4575693900556903;0.11399724866834227;-0.059568791746640315;-0.0513213786430895;0.1790135068148686;-0.011479548925390048;0.3699421786814181;0.07790283824144062;0.28110447363832236;0.0008977863575223566;0.8808424114617672;0.4444985746978638
A;-7.1;0.5158168790275091;-0.055887448265745654;0.3903456567746115;0.07848666779059954;-0.052850096713184413;-0.04942188279434756;0.1323359317245547;-0.029486570577118343;0.3535932578009149;0.07372762738052074;0.22952401416111634;-0.01536974197430574;0.8234821596122792;0.39963566073841505
A;-7.0;0.48545481350439834;-0.05731846780912697;0.32029819669871884;0.0453014354825747;-0.0464120529876908;-0.04815507928876617;0.09016828917094699;-0.04558069301336509;0.33692856208366173;0.06925508723044516;0.1807883314457852;-0.03046276903379397;0.7636783218471095;0.3545576240769641
A;-6.9;0.45591044161317384;-0.05780936894002675;0.2618639528235054;0.015781105469082846;-0.040593581990483685;-0.047577278742684914;0.054439833433853835;-0.058972913095402646;0.3204286650007031;0.06455469570069994;0.1363900477320854;-0.043881091407031114;0.7023352418597426;0.3100198958413749
A;-6.8;0.4277518966206362;-0.05690368843288951;0.21275900388702595;-0.008560197954857074;-0.035873157335464256;-0.04787353617868639;0.027343509911819552;-0.06874439079125949;0.3043776335926669;0.05962837960101197;0.0977042062408433;-0.05496470128090358;0.6396307495908715;0.2664975733873476
A;-6.7;0.4015895602742243;-0.05418967368143335;0.17626449038134062;-0.026278370955003183;-0.032681606182293876;-0.04920185159229895;0.010966945654889315;-0.0740227117251866;0.2890854286626787;0.05449076903527583;0.06608958046604219;-0.06315443028529977;0.5758624828233749;0.22450504743958533
A;-6.6;0.3773894638988584;-0.04986567711163392;0.15093142332031917;-0.03808341805084403;-0.030821024710004252;-0.05145231708575304;0.004457738056203198;-0.07516832073184965;0.27456127245966044;0.049188970037747026;0.04116473817687005;-0.06853728883597299;0.5113949547986252;0.18415089351097436
A;-6.5;0.3547733026161164;-0.04426914309859864;0.13605274187979965;-0.04459422772008814;-0.02995366572242375;-0.054467650468781326;0.006058617857384263;-0.07291725237464419;0.26064060209287376;0.04375449385648977;0.02190153892865343;-0.07145449024048389;0.44659786582124283;0.14529109539890683
A;-6.4;0.33394200825654785;-0.03779224269539405;0.13236353260053058;-0.04558454722556249;-0.029661828239426313;-0.05802644262180001;0.01459208808740442;-0.0677804024696762;0.24746837867467697;0.03829339156693301;0.007948543208032177;-0.07266280466929409;0.3827548273267283;0.10824034500278046
A;-6.3;0.31501752221910495;-0.030911275478295863;0.12706441521720535;-0.04701278597327452;-0.029444387676814898;-0.06186772766392323;0.02842985687114563;-0.06044011292684992;0.23515438222388063;0.03291778264973999;-0.0012828266161983848;-0.07249970026876884;0.3192838054775997;0.07326608367728582
A;-6.2;0.29754725342762045;-0.023688641604858063;0.1159176586619104;-0.05082686370810663;-0.029268988042439048;-0.06596778426575112;0.04662592439232327;-0.051275772888658366;0.2234751717674417;0.027601074101795575;-0.00654056053970109;-0.07118159587479855;0.2554551745701481;0.040087794961671364
A;-6.1;0.28116539220361414;-0.016111475230441208;0.14706236432365039;-0.03516727773260264;-0.02917507536275643;-0.07033782333352878;0.06881008650733733;-0.0404959932972524;0.21224613061377262;0.02231186230989657;-0.008335804804986857;-0.07021735895923165;0.19799464465171823;0.008467966555379292
A;-6.0;0.2652073832972084;-0.008352573997639112;0.20532628679108456;-0.007164499014530534;-0.029033685619486604;-0.07490777692999773;0.09327888419331742;-0.028782632593337354;0.20114520389946833;0.017022354761738967;-0.007891263989002972;-0.06782375878053415;0.14454433789230592;-0.021996874967076252
A;-5.9;0.2489745319723502;-0.0005575665685375597;0.07695957883784565;-0.06399583994844882;-0.028745944117790856;-0.07962198891435035;0.11772903275801383;-0.01679162212342966;0.18982894102523673;0.01169481359437441;-0.006435534019647804;-0.059879507343027605;0.06399169781131064;-0.05175579988206991
A;-5.8;0.2330075114436405;0.006932103920103572;0.20483468741924327;-0.0024660272255125903;-0.02791191207877297;-0.08427718606065415;0.1432484592997838;-0.004717133888561875;0.17861157116246673;0.006459227464882034;-0.0037456167653573402;-0.0510305574357206;0.023571576041838682;-0.08027744534218328
A;-5.7;0.21819198588292288;0.013663239147753359;0.20079920665047624;-0.0061370176634323315;-0.02599563456612941;-0.08859911745096927;0.16806687057438907;0.007268922979166703;0.16799949619832333;0.0015056434259417273;0.0006988061308970117;-0.04875667927006422;-0.03737391625125852;-0.10672032967993417
A;-5.6;0.2049724227281069;0.01948324677674229;0.18453899913419392;-0.009115644813148194;-0.022802553565927752;-0.09247627834314631;0.1929323228013935;0.019212321299233892;0.15823513960609503;-0.0030863245456504984;0.007266106752933155;-0.04834357954718982;-0.0908116805720951;-0.13072958503784804
A;-5.5;0.19391955063674127;0.02422678938599976;0.197105746965752;-0.0028120612747493112;-0.018115190632707723;-0.09578692120398946;0.21805647264569927;0.03122084756536303;0.1496265220069013;-0.007222074649984478;0.01648453035490416;-0.04247283410451885;-0.13874763645294053;-0.15185897725140052
A;-5.4;0.1854220614020443;0.02748381075052464;0.21299467661517468;0.005450995429656658;-0.011511947480022044;-0.09829173862799934;0.24236177554577054;0.04281550915599652;0.14243322848957618;-0.010763799649289751;0.02816031227467608;-0.034010935481976645;-0.17957443841302378;-0.16958910529890758
A;-5.3;0.1795873170422646;0.028930342419602795;0.22083518538378044;0.009882991020766951;-0.002692399222645747;-0.09980055317928249;0.2645618567186325;0.053457844814706945;0.13676393704316148;-0.013618756936448762;0.04180760810904527;-0.027313028216127577;-0.21427072948546666;-0.18363470930240666
A;-5.2;0.17708741144305762;0.028049935704556717;0.22090049417890079;0.010547309353995615;0.008909886335350947;-0.10002180631764945;0.2837206018548706;0.06272130546139465;0.13302761469431346;-0.015603665181421533;0.05751151596104176;-0.021624872905891657;-0.24087128190839735;-0.19326247772302096
A;-5.1;0.17850447324757424;0.024381672857399117;0.21822415400507644;0.00934515264311031;0.023781132577422426;-0.09869097822171957;0.29890689335326925;0.07017836696773294;0.13158687789838375;-0.016552229677486707;0.07527730188503234;-0.015868388861089322;-0.2571399089980666;-0.1978034905444055
A;-5.0;0.18336536020545546;0.018191398949403137;0.21174647738928698;0.005883852386993738;0.04157550584588954;-0.09592347960938197;0.310246879115347;0.07590798684662481;0.13217293367651806;-0.016563457979053453;0.09472964488628133;-0.010386576947904125;-0.2641801904409249;-0.19776201357043988
A;-4.9;0.19101723445947938;0.009914217015705162;0.201112942948118;0.00020528891051441178;0.0617736270340874;-0.09193003431063573;0.31832638548175396;0.080196323816768;0.13439466767379393;-0.015797544308027156;0.11554506228411299;-0.0053684104550733025;-0.26364224514140133;-0.1939129586493209
A;-4.8;0.20062511723173326;4.170127217495434e-05;0.18694611180343124;-0.007348613972775198;0.08369562040123668;-0.08693166568064825;0.32319696450137414;0.08308980424797952;0.13780370592053792;-0.014416968439196154;0.1370049525042072;-0.0007084899310259019;-0.25687404814190984;-0.18697750999435314
A;-4.7;0.21119662115828275;-0.010831037908189067;0.16977225070917967;-0.016446115356968605;0.10654209470783371;-0.08120386015282177;0.32505124313044576;0.08470202038315122;0.14185805490559567;-0.012623032302713;0.1583249537351703;0.0037019033268341772;-0.24562342898700606;-0.17785154902057343
A;-4.6;0.22262339234335515;-0.02257992875581838;0.15023219359077622;-0.02674199514312292;0.13018204701516112;-0.07481871634529158;0.3243885696126725;0.08526223942833511;0.14646570847065732;-0.010465808286419076;0.17957195550300664;0.007918400925809976;-0.23049124460325032;-0.16683112535653066
A;-4.5;0.23497312375306123;-0.03517168225021994;0.1288474109010842;-0.037970281206906265;0.1545755307440988;-0.06780274440042344;0.3215880797724928;0.08493752403046528;0.15164232590733384;-0.007953677343671472;0.2008937652589946;0.011958135686928273;-0.21165111259558955;-0.15399962434820225
A;-4.4;0.2478951281369346;-0.04833956257901928;0.1066289797180513;-0.04958728881740093;0.17945914010472386;-0.0603015495341368;0.31743447284749493;0.08409524697765924;0.15714024379487768;-0.005202525850032558;0.22229705635986097;0.015936125291138303;-0.19039567571546456;-0.1399905916012827
A;-4.3;0.2611134284241863;-0.06184726922660744;0.08461203695292063;-0.06104227520829042;0.20460560510421644;-0.05245085825152529;0.31273897832255315;0.08311051741603492;0.16275267444658148;-0.002314883848896443;0.24385614010241063;0.01996457090350301;-0.16789564506899168;-0.12536948235196732
A;-4.2;0.27404259024457645;-0.07527163500828937;0.06275831344448157;-0.07229506165517563;0.22932716961043553;-0.04443116623552612;0.30726734389682875;0.08187739646274039;0.16821007392355547;0.0006145574407412369;0.2648912175327718;0.0239235768367676;-0.14467728125843848;-0.11041669129526
A;-4.1;0.28584431487590045;-0.0880651217832451;0.04076680509775876;-0.0834186137674564;0.25273542725300757;-0.03646508017903827;0.3005214943464658;0.08017699101184306;0.17312748446692616;0.0034575417826498978;0.2844002620768311;0.02763005471479829;-0.12144524283088742;-0.09552357349282303
A;-4.0;0.2963598098672424;-0.10002408536510199;0.018539128567406138;-0.09443542208851774;0.27440467403972235;-0.028648217197380976;0.2922590599222694;0.0778816146130552;0.17747226608736177;0.006204888503363648;0.30202963281495876;0.030973321022795375;-0.09795419523000959;-0.08056566859767855
A;-3.9;0.3054286759160436;-0.11093495917601537;-0.004130674677838897;-0.10542103312957707;0.2938710180989723;-0.02107834658339236;0.28213687617794037;0.07481454623503758;0.18122317580169778;0.008853980863216648;0.3173746209397068;0.03381642478840963;-0.07383241997844081;-0.06535384348716988
A;-3.8;0.3120945511910329;-0.12026659047050003;-0.027149934040384238;-0.11625170318710865;0.3104116044416134;-0.01397708913781015;0.2700704345157803;0.07096611978988498;0.18387023289517224;0.011221141061323436;0.32956934254930736;0.03605553604020617;-0.05063356418587972;-0.050727119639422114
A;-3.7;0.31551427986251523;-0.12757477776718762;-0.05024231949763447;-0.12672373262374848;0.32347070855809257;-0.0075371072258239025;0.25617888106002695;0.06642127555970134;0.18493926394715388;0.01313054825571136;0.337943162352226;0.03764279944966464;-0.02999515374906281;-0.03756553538163132
A;-3.6;0.3146495314132771;-0.13222313110098938;-0.07344545263393876;-0.13676678426129563;0.33212516759850175;-0.0020247058508817695;0.24022670069378194;0.06109129132832791;0.18390674454690448;0.014395151379233084;0.3414815306602197;0.038426203062718045;-0.013306031424910714;-0.026601992941444053
A;-3.5;0.3084918583316232;-0.13363162358338965;-0.09679883792503041;-0.14631850174411376;0.3355589402260666;0.0023187099139807543;0.22201222440979151;0.05490812840033499;0.1802519726502947;0.01482941651140024;0.339225429904495;0.03827031402363357;-0.00203599769107754;-0.018622796835529698
A;-3.4;0.29759576040894764;-0.1320470325059473;-0.11991123938587833;-0.15522135226749612;0.33407401886538146;0.005553694263005671;0.20190139033658028;0.048008982592635974;0.17425855748633268;0.01452294231941309;0.331699573436385;0.037259714566108215;0.004492718951976116;-0.013259895164598134
A;-3.3;0.28301940844365436;-0.12792329725719664;-0.14229817345924367;-0.1633043806801453;0.3282070106421333;0.0078102801333646;0.18037672953129302;0.04055571272422753;0.16649164069918854;0.013661463928096751;0.31986256506769273;0.035527343842530534;0.007861884226095128;-0.009639601178314194
A;-3.2;0.26534637192524757;-0.1217301992162163;-0.16362677517509638;-0.17046442437741938;0.3187101928544056;0.009257343818434904;0.1578993607672139;0.03276188628781895;0.15718756852984583;0.012322763234193346;0.30438319616147425;0.033214516916830306;0.008198624154019285;-0.007749227628249145
A;-3.1;0.2453802301722181;-0.114055485241229;-0.18349870877523067;-0.17658287743210188;0.3064993842633097;0.010106328431994882;0.13501858556508495;0.024873805195188226;0.14669486392895514;0.01062264813585223;0.28614534023912075;0.030496211490518732;0.00591930316431899;-0.007419582830475946
A;-3.0;0.22380437915541718;-0.10503260078586507;-0.20159055468424114;-0.1815304469303758;0.29160377999507503;0.01035583787615435;0.11200154602358836;0.016944064612252063;0.1354270177166157;0.008692383808872606;0.26570141889230303;0.02742162334649567;0.0024624641803718816;-0.007800949964991588
A;-2.9;0.20104133339181018;-0.09469151553947341;-0.21772001880868963;-0.1852331042159463;0.27393531205593113;0.009973409554197232;0.08899556308425005;0.008984073163968986;0.12365702865414896;0.0066169186281221926;0.24336587380761454;0.024004509147743214;-0.001150882709659129;-0.00827559153181312
A;-2.8;0.17823295382316617;-0.0833371733272763;-0.23136638051026104;-0.18748987521007443;0.2537098246703504;0.009007885544026983;0.06643748823632478;0.0010970659922708847;0.11205254717902591;0.004611654358054551;0.220097114431951;0.020347620860554194;-0.002684033088939941;-0.00754607781551897
A;-2.7;0.15648681401472997;-0.07124651636178125;-0.24205481603104317;-0.18811978405577534;0.2311011551620581;0.007498026278391023;0.044730423176105205;-0.006630568132944603;0.1012685724998903;0.0028877551228738696;0.19681749032714801;0.0165447989225731;9.636120525513547e-05;-0.004309270825025635
A;-2.6;0.13571690126424318;-0.05879099058530546;-0.24994484549226037;-0.18724564443231095;0.2069002939661697;0.005619100285644052;0.024031288027117625;-0.014062883490334244;0.09113708402231069;0.0013943546206736102;0.17365515759017036;0.012675233412065445;0.005835493453208329;0.000581477609824077
A;-2.5;0.11566979754257112;-0.04644610327386367;-0.25525349423054244;-0.18502547479966402;0.1821700786069531;0.0036083895539711364;0.004524117718062826;-0.021012084955502885;0.08134431805650344;3.47419817021688e-05;0.1506743866313185;0.008841505463712984;0.012393305764057061;0.005783998773775778
A;-2.4;0.09598191865863992;-0.034363737758198454;-0.2583310834335659;-0.18165098744330166;0.1573681470058741;0.001557055795501583;-0.013806899178664622;-0.02742723467483188;0.07160668588944752;-0.001282418538309571;0.12772061566035298;0.005065465060440033;0.01827542238580193;0.010412890538145092
A;-2.3;0.07613404179903194;-0.02269809578114934;-0.2596291000330968;-0.17736253628970644;0.13301448075946887;-0.0004292832799737134;-0.031028666523848614;-0.03326163073440647;0.061537922080898255;-0.0026810177271094915;0.10452986049204949;0.001363180999630842;0.021560804775699438;0.013328615296600788
A;-2.2;0.05663037146747296;-0.011955260005391821;-0.2588304859214485;-0.17206590213871742;0.10997326093083792;-0.002160877605903888;-0.046679763582428535;-0.03828440109250408;0.0513099574220135;-0.00410487315860486;0.0817330522692492;-0.002116016316291436;0.02204220572740212;0.01433052576678051
A;-2.1;0.0382256493906703;-0.002575779163654701;-0.2554542668195108;-0.16558205336552234;0.08889373192522321;-0.0035001515549892837;-0.06023731362446938;-0.04227796289398711;0.04127847292514275;-0.005441116234436549;0.06012035479686251;-0.005223029349184394;0.02036371900592826;0.013740355502676493
A;-2.0;0.021105371109080284;0.004840083508129922;-0.24947281188445025;-0.15796940734999332;0.07094427812596216;-0.004178576826169067;-0.07137397287848657;-0.04501914810586527;0.031384738314820027;-0.0067032985825203895;0.04012110869718466;-0.007811497346096097;0.015256283163992634;0.010706476630939932
A;-1.9;0.005566800684019491;0.009740301480237967;-0.24072011703351315;-0.14921396483040006;0.05716284356890178;-0.003961648371960891;-0.07971165559811766;-0.04628194469730751;0.02165440174355382;-0.007880335798738258;0.022233855774233646;-0.009733317999379487;0.005850898089303058;0.004623710376090884
A;-1.8;-0.008266979861379031;0.012353466691606307;-0.22924819704630117;-0.13932849858747787;0.04710151437142862;-0.002978994933736878;-0.08525072270000678;-0.04613343095895317;0.012238395402651037;-0.008933588252011404;0.006524950202455138;-0.01101585359969004;-0.006989271850365242;-0.0038988065591283316
A;-1.7;-0.020574060243459424;0.013106285748011537;-0.2154190517561254;-0.12845969468217966;0.04002698213736444;-0.0014249829532015923;-0.08824271707265297;-0.04475685220150005;0.0031584500376382607;-0.009866320435403253;-0.007248016298812665;-0.011753340262473877;-0.02258695273016187;-0.014314450353491992
A;-1.6;-0.03065680607838628;0.0124231231881895;-0.19854562176518797;-0.11623777871089835;0.034913634465482346;0.00041715781319684453;-0.08838722182387215;-0.04217716971085217;-0.005018702005887832;-0.010518088929117653;-0.018647968517497837;-0.011954390787263236;-0.03818004648133666;-0.024855480652682616
A;-1.5;-0.037833635364912244;0.010837605226710956;-0.1779808034126873;-0.10230042801686956;0.0305262570681748;0.0022132597304937995;-0.0854370768344701;-0.03846122891829573;-0.011703229783019964;-0.010722783050535867;-0.02729158235976481;-0.01165153388719542;-0.05073896972159275;-0.033569453348899714
A;-1.4;-0.04271086391030332;0.008466548552703124;-0.15450571928800372;-0.08704021440559906;0.02690436395746687;0.003973587937216472;-0.07984013204244533;-0.03377726036041828;-0.017230212484717455;-0.010586873823257292;-0.03364584776389812;-0.010917611824743823;-0.0614470565297367;-0.04109101270652715
A;-1.3;-0.04584295591915799;0.005325660281986444;-0.12875424072331398;-0.07079113151664629;0.024274726404856395;0.005754267978656635;-0.07196941648528465;-0.02824483906134212;-0.021933798574336194;-0.010215874462017993;-0.038101520690092094;-0.009797139594510007;-0.07165598381972771;-0.04818608734721508
A;-1.2;-0.04803337819480902;0.0016972351871817892;-0.1018940503559147;-0.054110123764127493;0.022413110294790428;0.007504110440757383;-0.06246325970089117;-0.022128496573907697;-0.02622211785685913;-0.009739525278261496;-0.04133485485391564;-0.008417055113966398;-0.08254557985501165;-0.05543842552653544
A;-1.1;-0.050158275089392745;-0.002165842937652762;-0.07515578913930554;-0.037587895432118046;0.021181784088108557;0.009196344627365072;-0.05200212762862222;-0.015697510119840885;-0.030557008515433637;-0.009303438355441784;-0.04407191740314431;-0.006905055720433317;-0.0955492416219954;-0.06359318806174485
A;-1.0;-0.051019595771374604;-0.0059497001686796835;-0.04695040799221495;-0.020429918505270095;0.019621350958280104;0.010555581772919265;-0.03988717199848324;-0.00882003479755511;-0.034099747719796625;-0.00866682019598386;-0.045451170708691535;-0.005185121971432061;-0.10708059489972754;-0.07045561218715335
A;-0.9;-0.04880156547020986;-0.009246622473515487;-0.015022814572930088;-0.0014929912462733341;0.016371456714947996;0.011192573157762453;-0.025037076651774015;-0.0012731464090354194;-0.03560177527300645;-0.0074672386808938285;-0.04415937676249193;-0.0031376170964758643;-0.11183492989560406;-0.07279611125001395
A;-0.8;-0.04264138770639514;-0.01196202947574232;0.02190026079067664;0.019840795341066197;0.011033837682569825;0.010984818460071377;-0.0069307530735542855;0.007073546740002712;-0.034494963034509496;-0.005542407939632454;-0.03953597521123697;-0.0006768514022681416;-0.10761253249132707;-0.06930868449141059
A;-0.7;-0.031468380643480565;-0.014003398551817092;0.06545157241557042;0.04435532710026635;0.003145136136000204;0.009790238700219334;0.015093486793901434;0.016394663157429434;-0.030083788683594292;-0.0026921674064297463;-0.030761860137186403;0.002305423260611228;-0.09173477211470882;-0.05841408374805468
A;-0.6;-0.014341758710130215;-0.014914500685134335;0.11620865752410126;0.07241964703691472;-0.008472291095623419;0.0072829845149402495;0.04149248176273801;0.02670738164936992;-0.021646144037550386;0.0012909996469598894;-0.01720696499315366;0.005822269426756677;-0.060759642128918046;-0.03793542641968628
A;-0.5;0.009141608361158404;-0.014296715323206755;0.17390424773066826;0.10398814348982022;-0.02470164771107264;0.003223734720130267;0.0723628738422839;0.03793116984563305;-0.008808225903951694;0.006512258113543723;0.0013594505217149333;0.009839931989128026;-0.01264229416629803;-0.006525052387711838
A;-0.4;0.04050994736293134;-0.011613094224538933;0.2404166934778207;0.14000435278124357;-0.0470753807916946;-0.0028121913368122087;0.10854959792267138;0.05018995691403738;0.009535679984528755;0.013291453756623994;0.025982525457314942;0.014420473180221549;0.05762784258241993;0.03890939534254301
A;-0.3;0.0810566888829265;-0.00636793154265991;0.31712875211467484;0.18120305632201372;-0.07697070649730797;-0.011204902590361332;0.15073797450665083;0.06356591991943894;0.03433463231205458;0.02190334423822371;0.057540820636656775;0.019606410440143662;0.1544233365312344;0.10108169857628369
A;-0.2;0.12975919232663102;0.0011754768971554697;0.40271342352648354;0.22687226639981617;-0.11343429034995722;-0.021687128734194427;0.19821806373410666;0.07789629476696369;0.06488951395486353;0.032139032419044256;0.09532545236467183;0.0253508456681395;0.27461347410427805;0.1780688687153571
A;-0.1;0.18521003423663718;0.010554048621045808;0.49594601738995614;0.27627845857670863;-0.1549669595286467;-0.03384023410730164;0.2500788259263267;0.09301212892196453;0.10020390212255492;0.04370167301583194;0.13836889204566116;0.03161103264091736;0.4135860338351627;0.26699172539901284
A;0.0;0.24540019301445648;0.021344841540201998;0.593064505841058;0.3277409874043169;-0.19999648786324364;-0.04722194658959289;0.30493827119928696;0.10856700909774375;0.13892557823459484;0.056194822438525804;0.18527298651169666;0.038253489157520804;0.5655774414969912;0.36438742546879155
A;0.1;0.30797922359327856;0.03301879489928794;0.6899569663356839;0.3793295279267035;-0.24662099605347798;-0.06129744692234462;0.36120565923506476;0.12417626921057945;0.1794607721301933;0.06915130419458393;0.23440199276449025;0.0451298352129017;0.723738558532407;0.46612237157334135
A;0.2;0.3727787737919628;0.045404638225960525;0.788215528608367;0.43165828119862937;-0.29434296663058923;-0.07592321342890207;0.41877513327238347;0.13986731037883082;0.2216545525692677;0.08251981594030333;0.28562859791539363;0.05227637394057183;0.8870910582345886;0.5714764300245747
A;0.3;0.43994586019157467;0.05843711438212296;0.8897931030518098;0.485602218278391;-0.3429976787252702;-0.09104747746062358;0.47772853030953755;0.15569965400151986;0.265575603757533;0.09631573010986116;0.33904139681075307;0.05973839279424631;1.0557020120301246;0.680376262600479
A;0.4;0.5088909582429548;0.07176937676901218;0.9962772041517987;0.5413126187095951;-0.39157852200734666;-0.10638420031324358;0.5375718286317444;0.171671768081195;0.3107591331816302;0.11039566458233807;0.39422210839952676;0.0675470500677191;1.2271048019097783;0.7911613064820813
A;0.5;0.5791726595751685;0.08508504888194768;1.1095637539599323;0.599152325724722;-0.4391929864669919;-0.1216782300490471;0.5985235578285213;0.18780964284081136;0.35683842916906094;0.12464512285159302;0.450851606722086;0.07574347000570025;1.3992576175482228;0.9024186743978326
A;0.6;0.648952828643298;0.09811416751909885;1.2252541626359719;0.6573751960647325;-0.48470408635573214;-0.13660418214101577;0.6601165189385192;0.20373343783374942;0.4026066919520854;0.1387170119627008;0.5076447271799429;0.08416102886933263;1.567357094584068;1.0113377169582627
A;0.7;0.7157059873936724;0.11051787438242222;1.3366331032267542;0.7131079718498672;-0.5266378062715322;-0.15074209665929006;0.7162737261049479;0.21890683072104444;0.4464181848402262;0.15213900049883122;0.562841749030274;0.09256013173773603;1.7249034156240235;1.1141551032537578
A;0.8;0.7785036896598339;0.1222444435496719;1.4408080376134773;0.7658548562122895;-0.5646062474629563;-0.16397232954309082;0.7651389798919297;0.2331030543652144;0.48768148464067096;0.1647438927580822;0.61577042150354;0.10083144054418902;1.869766285797155;1.2096404871214723
A;0.9;0.8363203486200699;0.13325898876727926;1.5345656019319698;0.8149700007510292;-0.598243400034649;-0.17618062496344367;0.8248951677966545;0.2460613299424086;0.5257496071888372;0.17635007924262602;0.6656901063663438;0.10884558605924077;1.999698046308918;1.2965267545450487
A;1.0;0.886892061666074;0.1431095085391254;1.613060465177064;0.8573638771845573;-0.6258733259286675;-0.18689005912937917;0.8885370437253144;0.25736842340604404;0.5591071910249727;0.18651634611751433;0.7110174308920341;0.11643631637020668;2.1082958469538156;1.3709794592090212
A;1.1;0.9284180547486329;0.15137247058484515;1.6729480124304086;0.8904493837873932;-0.6460020406887121;-0.19567364118777197;0.872443685937089;0.2667274294041082;0.5865300819025911;0.19488320279296545;0.7504824455595749;0.12349388006520634;2.1902907567688317;1.4298057146976504
A;1.2;0.958144904661435;0.1575638226918965;1.7091363586461235;0.9107320085762751;-0.6567857684688825;-0.20200733484891087;0.9520871716809438;0.2736070027817945;0.6061899139856468;0.20092349923823605;0.7821687956569594;0.12978740128572852;2.2383319006363145;1.4687224393641465
A;1.3;0.9735447463379283;0.16122240885908656;1.7168234383003984;0.9147917827631771;-0.6564886085358452;-0.2053964637375767;0.9580556140076872;0.2775272265210269;0.6164038857081842;0.2041507096431694;0.8043111810384875;0.13511171586689041;2.2454094160808182;1.4835586680771087
A;1.4;0.9758624796220858;0.16257421848619202;1.6994511942650483;0.9047731352650343;-0.6459361787428843;-0.20605426812468464;0.9645776688891452;0.27874398346812335;0.6179835858559315;0.20479825471300828;0.8177039027147446;0.13957342387690463;2.2152697886852835;1.476528013366618
A;1.5;0.9673121664411948;0.16205841958160683;1.66334598646813;0.8846541663731937;-0.6267234011735425;-0.20440676264066937;0.9654861753102075;0.27768725223960544;0.6123871459047017;0.20328960616272518;0.8238015813274888;0.14334216180897563;2.154357955904871;1.451397005938368
A;1.6;0.9499814156418851;0.1599662313000616;1.6118887236830126;0.8565865422552417;-0.6000088407109221;-0.2007582908022303;0.9629953870123309;0.2748094793246487;0.6009691237260348;0.20000702906759216;0.8239645799051454;0.14663170445967122;2.0670301614328146;1.4101951681000493
A;1.7;0.9264981960497218;0.15668508677910875;1.5496609982559573;0.823407213611465;-0.5673157890468996;-0.1955139291343344;0.9538548542948249;0.27067019003947834;0.585440601593799;0.1954357431143805;0.8199193993729157;0.1497006859013439;1.9598822141005314;1.3565257083807296
A;1.8;0.8976971822543236;0.15245859995286803;1.4821719288226767;0.7879278196978898;-0.5295078861701779;-0.18889823248731474;0.9393295074218173;0.2654082456709457;0.5663520555402677;0.18974485665250107;0.8121942837537439;0.1525717665980535;1.8347294525697961;1.2911010825258131
A;1.9;0.86388895447829;0.14742945424480336;1.4135854203538685;0.752059510623063;-0.48708945839333495;-0.18103641310155538;0.9211398684702488;0.25906018808787756;0.5439066086288165;0.18300294956533314;0.8009635671742457;0.1552251375878626;1.6917522304783752;1.213730333170286
A;2.0;0.8267654071557891;0.14202342230131215;1.351509340417385;0.7197267651328207;-0.4415713453879544;-0.17233190142410404;0.8995761126307826;0.25192694018510053;0.5192264873484937;0.17554632057258956;0.7873346928447029;0.15774403343621568;1.5405497310921454;1.1317477819967685
A;2.1;0.7878891611201739;0.13664929915666946;1.3033774228053634;0.6947452601956012;-0.3944086102144091;-0.1631734366529911;0.8772958319413462;0.24428038265082996;0.493348557659008;0.16768792990030157;0.7723306177938634;0.1601955106549644;1.3883827421245094;1.0495419210865755
A;2.2;0.7485864136786549;0.13139231479106162;1.2682679209322227;0.6765765631648044;-0.3460926697894582;-0.15368063228046314;0.8559221699988342;0.23644154735816514;0.4671157039445095;0.15965637190027238;0.7567969058749417;0.16275548849700883;1.2386605149811487;0.968900770994761
A;2.3;0.7105012512245583;0.12631539291169602;1.2431121153280884;0.6635703259515537;-0.2970817693180088;-0.14396313912901748;0.8280801959810731;0.2288248474326089;0.441571888898304;0.15172942965414116;0.7417850911466939;0.1656658182181463;1.0969187733009882;0.8967916702071435
A;2.4;0.6739984342236678;0.12135840315513402;1.2258522321933665;0.6546070284453442;-0.2473552324542556;-0.13400270493798772;0.7962303302506832;0.2215462672003241;0.4169233054640795;0.14395813158720117;0.7275041427317817;0.16899798535606259;0.945415126304546;0.8152988765560103
A;2.5;0.6393663582455478;0.11641730998929223;1.2134113656443102;0.6480169662583055;-0.19676428840029736;-0.12374523699928242;0.7979018584874815;0.21471606372922558;0.393321866022875;0.13637506066500116;0.714112247693194;0.17282971395765845;0.7890662214199082;0.7148437746509124
A;2.6;0.6087814461623329;0.11177816721181344;1.2053601339547573;0.6434263116444789;-0.1464494227266364;-0.11349124885455408;0.7586436891051953;0.20882007866258157;0.37218467769793584;0.1293771986057024;0.7030203664584764;0.17739450479999608;0.5728472954046104;0.5716801651103829
A;2.7;0.584316407590515;0.1077772838645723;1.202508077409087;0.641123300498526;-0.09768122627598075;-0.10358000668374734;0.741128104677788;0.2043012899960921;0.35486875939781903;0.12335192927078609;0.6955748093595586;0.18288350280432386;0.4745606525682433;0.5225852489595901
A;2.8;0.568287376885138;0.10464280886090194;1.203156889462294;0.6400361148976561;-0.0514867679336124;-0.09427693380222424;0.7372879508015444;0.20169626760802117;0.34287479060166426;0.11871183858358592;0.6932861803402428;0.1895785944949333;0.41090105394148324;0.49941857877433904
A;2.9;0.5629111424949436;0.10261676695181965;1.2056272313096912;0.6391113600764857;-0.008914674162076253;-0.08585342902894588;0.7317080712643822;0.20151420229369954;0.33764271483489594;0.11585532575404756;0.6975993316233975;0.19773909665279366;0.3215854516814183;0.44197656728305645
A;3.0;0.567413170264452;0.10165696367604049;1.2106054253875715;0.6387812120452381;0.030112226616733295;-0.07828679242068759;0.7323861615823652;0.20356690278489076;0.3386497385385532;0.11465131656826166;0.7079876161536234;0.20722110424691476;0.2304990399464657;0.3735457109316016
A;3.1;0.5800818070589062;0.10158174805382725;1.2191968827432156;0.6397689250501148;0.06613244477575897;-0.07142800483846079;0.7393599090460903;0.20745889212371083;0.3447525661794497;0.11479628196380354;0.7233138749523143;0.2177755391348466;0.17656860717652378;0.3315228281314546
A;3.2;0.5998345250981498;0.10243717445953049;1.2322766801268425;0.6426323692957201;0.09906259913847038;-0.06529733511533875;0.751636618499127;0.21291009716363263;0.35524755013585363;0.11612069104475431;0.7428389923176173;0.22917360702710177;0.14867820412415966;0.3063459563460462
A;3.3;0.625173667758713;0.10423143504716759;1.2509603177243047;0.6480875550240768;0.1289771104947146;-0.059876430232508326;0.7667672423595988;0.21954285144165375;0.369159418463207;0.11838201222351152;0.765551633168637;0.24112934167150613;0.13087963661794078;0.2844726374259636
A;3.4;0.6552064402699145;0.10676886403294006;1.275606187733473;0.656387133279539;0.15627529746422653;-0.05503771528047663;0.7844579995851291;0.22717034678772308;0.38587567812720636;0.12141043815016772;0.7908781546926322;0.25354264347576105;0.12436608833931473;0.26792382094514267
A;3.5;0.6894530481211305;0.10989783745989623;1.3060452296480758;0.6674681804404514;0.18117490528531022;-0.050693836082165156;0.8047518924215282;0.23570343673767802;0.4050591719572658;0.1251100893556334;0.8185191273930963;0.266370209826313;0.1305071649033387;0.25852954735691114
A;3.6;0.7262702517920725;0.11331874548040588;1.3427315847831025;0.6816870630973728;0.20448274429918634;-0.04662836442667606;0.8264712564487446;0.24478329256160158;0.4255977726802094;0.12917456028195495;0.8474085144013452;0.27941854406187394;0.14348772677201183;0.25254892654626104
A;3.7;0.7640683982554335;0.11672295559145951;1.3860572894149463;0.6993615783615397;0.227023536491604;-0.04261946508702641;0.8485455446300385;0.25406702976193607;0.44641535276693567;0.13330527491755362;0.8765211402421826;0.2925088923157899;0.1577550438647286;0.24644543792622997
A;3.8;0.8025550526177732;0.12031614041899097;1.4350136035570689;0.7199730781841502;0.24820315016563477;-0.038804405752749016;0.870730119300287;0.2634528460102956;0.467354916037964;0.1374848365445036;0.9056373117737326;0.30549816082317127;0.17388679843021038;0.24069839986144714
A;3.9;0.8415459722763643;0.12443203389596658;1.488065049099422;0.7427161011738335;0.26718270193594407;-0.03540619684915436;0.8928008574255131;0.2728426391679708;0.4883469254760531;0.14173075350287334;0.9345895403965194;0.3182109125127388;0.193333889884304;0.23634582800136528
A;4.0;0.8812938775576264;0.1292629840968882;1.5443696049468798;0.7671195546001286;0.28333218578916863;-0.03256785967598974;0.9149299969022131;0.28227619232543866;0.5095929901423784;0.1461139318232263;0.9635422980068435;0.3306114262174944;0.21755660742179117;0.2342883032022982
A;4.1;0.9222128397680316;0.1350552739757207;1.6028878258301908;0.7925949804359256;0.2958188411730145;-0.030469142287025353;0.9373918649532342;0.2918252574070319;0.5314098825765576;0.15073910690809278;0.9927627569077364;0.3426735598533006;0.2486158202587312;0.23578835069340798
A;4.2;0.9632940779089183;0.14189846442943121;1.6619801478692828;0.818339260273854;0.3047502349208475;-0.029166966188494126;0.9594194597986174;0.30121706782509605;0.5531506039516216;0.15545691383561788;1.021552906312615;0.3541578204261433;0.2849616094610461;0.24006920663330078
A;4.3;1.0033374668177553;0.1497627626178506;1.720293848848815;0.8437158836648564;0.3105867148492898;-0.02864105073392098;0.9801458703411505;0.3101486761969543;0.5740258842149188;0.16007107375756213;1.0491046060918485;0.36483456730335373;0.3241205274314787;0.24581022912004968
A;4.4;1.041484830136301;0.15886203338910576;1.7759186888036957;0.8677648599865169;0.312735924131621;-0.029018668478943077;0.9988717142260697;0.3183678419423046;0.5935151252329032;0.16447362550353972;1.0748046788198478;0.37445162688154543;0.36531161785718425;0.25266064603892247
A;4.5;1.0768508456011112;0.16936221257081208;1.8269577702426858;0.8895365147423027;0.3109172351837213;-0.0304013905000744;1.0148901812286155;0.32561976234843115;0.6110706733989009;0.1685461576394971;1.0980267319626016;0.38276613420369054;0.4075602232823705;0.2601818190941181
A;4.6;1.109581349136434;0.18108951824222252;1.8738136343527643;0.9092306782559438;0.30533682810775176;-0.032704261223318376;1.028436286748839;0.3319736909581952;0.6267793329478426;0.17229515830650577;1.118934589666531;0.38986503719516374;0.450611589903005;0.2682838653985016
A;4.7;1.140269972411902;0.1938389085392087;1.9176402262279577;0.9274135354386353;0.2959255044129403;-0.035823287572969154;1.0401078422971395;0.33762315916651175;0.6410278639548963;0.1757966766465895;1.138014434912228;0.3959400597314855;0.49491564360463514;0.2772273415726332
A;4.8;1.1688968671208366;0.20722974684943996;1.9587613321565982;0.944261720278849;0.28461595963126207;-0.03956855449481811;1.050066766548447;0.3426119739365525;0.6537460166106097;0.1790037368568438;1.1553337625897635;0.40110310428688356;0.5393114760263131;0.28651309835508343
A;4.9;1.1955731120616648;0.22082955637712143;1.9978073547104689;0.9601054740738908;0.273135830616404;-0.0437202547308253;1.0585977463355185;0.347026538160101;0.6649437639369555;0.18188412926497044;1.1710628402349545;0.40551213814221976;0.5826875071831523;0.29566008009989275
A;5.0;1.2207843005957777;0.23465232788898316;2.0355096270988984;0.9752917612395855;0.26047177048119785;-0.04828159423414746;1.0661205881606932;0.35100092449069464;0.6749895295346882;0.1845253463032961;1.185569490278457;0.4092694243063053;0.6259112909948392;0.3050871358177396
A;5.1;1.2448708721694293;0.24875456560370512;2.072192214101099;0.9899631345875246;0.2458495698388532;-0.0532809842947084;1.0729128898528941;0.3546200011158316;0.684160747975211;0.18699697585807407;1.1991033413008676;0.4124287780223028;0.669746317595802;0.31517170905713243
A;5.2;1.2686365017720362;0.2631069403546924;2.109176132346759;1.004753419762963;0.22626884871188402;-0.05869218103320195;1.0796770796031332;0.3581159163695844;0.693036311434934;0.1894325652731279;1.212279821802798;0.41518200305644726;0.7154328975133311;0.32649090458255614
A;5.3;1.2928930505972804;0.277706464896295;2.147761545198094;1.0202850821219034;0.1989175493971196;-0.06450121218377491;1.087105261175001;0.36171780014922383;0.7022079383916786;0.19197061851656372;1.225711351380082;0.41771376975226104;0.7643034369963999;0.3396635750386885
A;5.4;1.317199202660682;0.2921519152033314;2.1870292656916224;1.0361139512530393;0.16692442857110557;-0.07052085890764159;1.0949812594168655;0.3653379232161864;0.7113068755842491;0.19449382911516366;1.2391349256678126;0.4200345553877436;0.8144963683912536;0.353913489808928
A;5.5;1.3408264027435361;0.3058864980136251;2.2255711780716823;1.0515607065871757;0.13406015084457223;-0.07649043413772505;1.1029156292782254;0.36882800353181366;0.7197289693232278;0.196817418993394;1.2521071934859682;0.4221388140869027;0.8632112942760948;0.3680449844948832
A;5.6;1.3632590462297922;0.31866283562911146;2.2623181925880917;1.0661076648019696;0.10531957900434996;-0.0822956584712542;1.1105503011032063;0.37205421972689656;0.7270960245747133;0.19883259834177203;1.2642680265434612;0.42397127886765507;0.9089097966354629;0.38141758819086036
A;5.7;1.383847091690761;0.33019971873778253;2.295943607570374;1.079113217689602;0.08581142495128269;-0.08780777306329801;1.1174209673288118;0.37484638346755617;0.7329285923432973;0.2004043665390327;1.2751586655636222;0.42545466805454124;0.9497385750164717;0.393254190229289
A;5.8;1.4024594083406798;0.34006840906266067;2.326079521925834;1.0903909222538015;0.07379110213891948;-0.09281001798089905;1.123626947143734;0.37722856929898896;0.7370665628123678;0.20146032764576205;1.2847932955766526;0.42670084437277245;0.9841720153056635;0.40287975174055646
A;5.9;1.4192209248845482;0.34795621968486046;2.352846799726798;1.0999888322788216;0.06609161788076179;-0.09713373337057751;1.1294444499995748;0.3792882016488637;0.739556874607171;0.20198454761940354;1.2933636166196703;0.42785137870934076;1.0114133067040214;0.409922854217573
A;6.0;1.4337481580037776;0.35330966028204536;2.375379017426944;1.1074856745380188;0.059792495116825606;-0.10050946724701193;1.134779036035976;0.3809825042260293;0.740030399702464;0.20184793058480466;1.3006959463641268;0.428988222623349;1.0292018259206124;0.4134088023143825
A;6.1;1.4457427835387473;0.35563184488622657;2.3929942351222397;1.1125473718081205;0.05158411060999235;-0.10268940475003419;1.139599798247783;0.3822927117161292;0.738191655359012;0.20094200929490746;1.3066824449323766;0.4302034555861942;1.035548042700274;0.4124618335021033
A;6.2;1.4553832639747961;0.3551542216928594;2.4060179832993462;1.1153299040870674;0.042760255317990215;-0.10376357263143854;1.1439415854049813;0.38323201555378716;0.7342672876400869;0.1993327299768275;1.3113999687381446;0.43147302445507085;1.031351861683472;0.4074530784742869
A;6.3;1.4628510017769676;0.3522737555146431;2.4147981010028943;1.1160072077400436;0.0357418189663079;-0.10390463286422635;1.1477319955949525;0.3837793801099103;0.7285271396400006;0.19710951369810026;1.3148629596532526;0.4327114495989499;1.0180423134803256;0.39900399643309115
A;6.4;1.4686987854125446;0.3474485722159857;2.4204628955580247;1.1151104816941464;0.03191833760718943;-0.10328813510394319;1.151315901713435;0.38406202575602144;0.7215162453772912;0.19442574076023078;1.3174564341904658;0.43394929833448437;0.9976383555423496;0.3878851478424963
A;6.5;1.4735567174494997;0.3412423904859887;2.424303485922497;1.1132501383731856;0.032789701631495305;-0.10213792665762744;1.1550538749675034;0.3842144551671538;0.7138601986231148;0.19146114854746799;1.319598445702944;0.4352028074761507;0.9725876668324567;0.37504998327821326
A;6.6;1.477255781357322;0.33375160675651117;2.4259431615372993;1.1102650156797127;0.03762598421456076;-0.10049836146558189;1.1586436663507733;0.38413627726558985;0.7054965671396847;0.18820994322216222;1.3210589892503712;0.43637785871658696;0.9429708246552906;0.3605833892979433
A;6.7;1.4795694125878778;0.32497968285916556;2.424898745396275;1.1059420232958885;0.04495639151177855;-0.09836843873091006;1.1617901126710635;0.38373053621872266;0.6962953314330758;0.18464394282464625;1.3215988470735889;0.4374021844861291;0.9084857475090509;0.3443913575402391
A;6.8;1.4803693282201649;0.31516709213834115;2.4208663230277594;1.1001578134151586;0.053885925492666686;-0.09586414624148798;1.1641235029363024;0.3828737568219349;0.6862606542567722;0.1807833093385831;1.3209560055916763;0.4381337543676693;0.8697344205635247;0.32680681835472214
A;6.9;1.4794869328926636;0.30452699480399037;2.413461891287369;1.0927533395653066;0.06345193263932991;-0.09309028546128006;1.1652441948682366;0.381433264572701;0.6753578771194721;0.17663811199416557;1.3188394187623853;0.43842801007727994;0.8271859138862325;0.3081096421610212
A;7.0;1.4775529862753904;0.2934367549596715;2.404042320861752;1.0843592166007223;0.07343129380318736;-0.09016518298964327;1.1657083859684825;0.3796181155746101;0.6641520057190444;0.17235834367177993;1.3158054486655937;0.43840501908290985;0.7825863521504104;0.2888492812261738
A;7.1;1.4754876442436635;0.2823908365820076;2.394571725159272;1.0758814899910822;0.08380673022306517;-0.08724337515290337;1.1663605432715585;0.37773892050646296;0.6534433709860163;0.1681527787185022;1.3126770427178522;0.4382501805799621;0.7383469600587915;0.2697844221429797
A;7.2;1.4736950377751494;0.2715662408732653;2.385936783701876;1.0677385533242534;0.09453607119321461;-0.08435935311254683;1.1676106106055784;0.3759567564679287;0.643573193142176;0.1641096242424709;1.3098553972264302;0.4380805877501768;0.6953407514294412;0.25112188836340366
A;7.3;1.4726559714914798;0.2611493299225591;2.3791988719108375;1.0604283637200513;0.1055744759578161;-0.08154589989717209;1.1699682126285929;0.37446921354421825;0.6349351189647976;0.16032897551156822;1.3078294042488237;0.43804285625265527;0.6545397254662753;0.2330792631598939
A;7.4;1.4730177694147626;0.25163227427912016;2.3756665065773444;1.0545554872618448;0.11622932753421544;-0.07898547220435992;1.173872764410202;0.37343779982412073;0.6281426224322573;0.15697856943134525;1.3070738221314206;0.43819319632444076;0.6181298306535759;0.21645436915390448
A;7.5;1.475215647699737;0.24343370321990676;2.3761709594947025;1.050507767114432;0.12578249232085348;-0.0768432371489638;1.179520386277165;0.37293683262095456;0.6236398603594555;0.15418481160892306;1.3078433946170147;0.43852613400053553;0.5878745046661216;0.20193986597865177
A;7.6;1.4801468926407328;0.23714278414969225;2.382612891830526;1.0491615725983907;0.13342942895117282;-0.07532978699093329;1.1876391428933104;0.37323446895989676;0.6222293384874131;0.15216319210055218;1.3108776762108887;0.43916994930235154;0.5664900090722185;0.19046463418358428
A;7.7;1.488613444885488;0.23330130160603346;2.396662065413876;1.0512862780492203;0.13841997190431776;-0.0746428117147162;1.198847535957185;0.3745579112168773;0.6246339972618209;0.1511082644237316;1.316814331463358;0.4402258848796423;0.5564692351413818;0.1829023544097801
A;7.8;1.5002101923796074;0.23169942455274217;2.4174247639206925;1.0564945776051236;0.1410501860240938;-0.07469734588542742;1.212722789085955;0.3767743421866445;0.630504707394163;0.1509341234428181;1.3252824768003517;0.44162815247528764;0.5567208219232533;0.17886974430933478
A;7.9;1.514285339996508;0.2319376306451204;2.443542197934942;1.0641930883627717;0.14189875826781417;-0.07533141312585201;1.2286862265917051;0.3797024889563705;0.6392507780469874;0.1514907550967468;1.3357497489578094;0.4433041276925054;0.5652809340653988;0.17763413511367432
A;8.0;1.5300301420048292;0.2336140159558342;2.4731130183321817;1.0735240922794622;0.14147869726663487;-0.07640910783900656;1.2458332866071764;0.3830259547628039;0.6501999597390622;0.15260620629568855;1.3473975256123376;0.44506426597297066;0.580145980395951;0.17860577647068965
A;8.1;1.5464641219092385;0.2362214479387541;2.50386968271412;1.0834646840505249;0.14044141592424708;-0.07775579487256667;1.2631089807806717;0.3863762420869037;0.6625263887759569;0.1540686625206913;1.3592619280810485;0.4466939299962509;0.598810417322273;0.18102159934291606
A;8.2;1.5635018318636749;0.23965273809755505;2.535794621014311;1.0940334018118447;0.13891808790681637;-0.07931398774590503;1.280534703977601;0.3897904081309793;0.6760919570686177;0.15584510860058742;1.3713725964251804;0.44824777121679293;0.6207562712164645;0.18457307518452026
A;8.3;1.5812228934069106;0.2438967869452071;2.5692112273568615;1.1053988924460736;0.13689111870818493;-0.08106621594195174;1.2982703449159025;0.3933507769389326;0.6909007884879408;0.15793811477439945;1.3838913318506698;0.449799119797357;0.6459513030018442;0.1891303508270532
A;8.4;1.5993100669486289;0.248692828724705;2.6036392283019136;1.1173779748427632;0.13472004644082602;-0.08288945014674143;1.3161685045523797;0.39704170863184984;0.7066007709314412;0.16026145989220097;1.3966809317492253;0.4513888256540515;0.6731281035757561;0.19409578644833658
A;8.5;1.617507677561456;0.253805869665217;2.638754161652699;1.129857333910543;0.13271965354423365;-0.08467114188639568;1.3341541965144117;0.40087347639740933;0.7228839262141165;0.16273955808513918;1.4096700237041828;0.45307328837355687;0.7011601710917361;0.19890912859515097
A;8.6;1.6351630339700884;0.25893812920221393;2.6728468212637893;1.1420426753940731;0.1311930061865212;-0.08633951015537988;1.3513636834497795;0.4045233108105357;0.7392229500594745;0.16523185994080336;1.4220819075976454;0.4546300698590193;0.7286483041853913;0.20329344670942362
A;8.7;1.6513785408485018;0.2637058281972813;2.7035130967617054;1.1528132717528132;0.1305504046990098;-0.08780529015503369;1.3665812412697562;0.4075303501460077;0.7549206734707354;0.16755387300256785;1.432819759941946;0.4557362301914507;0.7537600267610465;0.20693567506571142
A;8.8;1.6658971096457207;0.26800723203502574;2.7300187626104186;1.1618149177694503;0.13078687548071954;-0.08907238721640276;1.3793767990386954;0.4097278909758959;0.7697570073123803;0.16964165909587692;1.4415094086483444;0.4562585734426716;0.7760890670228768;0.20984246119284222
A;8.9;1.6784395821279814;0.271741791769438;2.751525219213546;1.1686388567285064;0.1318824645525929;-0.09015305036329391;1.389259474248572;0.4109207879537582;0.7835027246169979;0.17142752572578956;1.4477212553470347;0.4560378818626498;0.7952472610063062;0.2120669232547705
A;9.0;1.68813790406878;0.27449385089768974;2.7658935305504695;1.1723169001391316;0.1343733185576106;-0.09090863252334991;1.3952150601172626;0.4107470324439184;0.79544685687239;0.17273374926242724;1.4505350349559754;0.4548516299027132;0.8091608955281977;0.21305727970989707
A;9.1;1.6942818464717782;0.27590210032324247;2.771473720865025;1.1721163106236432;0.13874028938941585;-0.09120505328735407;1.3964833855953067;0.4089485083132942;0.804982785970644;0.17341252524743744;1.4492615653116605;0.4525570543634059;0.8160001798396728;0.21224850428760078
A;9.2;1.69582066147571;0.2754739350755404;2.765552665824041;1.1667864563277606;0.14559631789826177;-0.09089686299825273;1.391773412400088;0.40504427286006184;0.8112682533650464;0.17324677208564054;1.44271966267977;0.4488403258552913;0.8133723490557259;0.20909464324360272
A;9.3;1.691789056980836;0.2727590514590741;2.7456570091162913;1.1551940732820931;0.1555193297461699;-0.08984458312155086;1.3799188330733756;0.39860451063169755;0.8135257976944175;0.172039430639364;1.4298433220272662;0.44342595915724825;0.7990537383264531;0.20306552314259108
A;9.4;1.6827357093654638;0.26798326761113955;2.7133296730168084;1.1380537306744536;0.16807986783006612;-0.08813142385507433;1.3616199651384875;0.3899037840740611;0.812105173192208;0.1698796921034802;1.4112895230469222;0.4364927522627089;0.7742056870515519;0.19437220194288685
A;9.5;1.6696021803055028;0.26154634791400966;2.6710845005559403;1.1165124166296527;0.18256248165466005;-0.08591152748631492;1.3380272602452123;0.3793751593109196;0.8076504656929409;0.16692612478976976;1.3881251636347214;0.4283116072231281;0.7409192450483104;0.18348107216364795
A;9.6;1.653260547946108;0.25384416357705764;2.6213910243584557;1.0917492649753706;0.19842537640256452;-0.08328305090745358;1.310324182490465;0.3674987622282657;0.8007637950430038;0.16335014193214548;1.3614592803620287;0.41922055180275075;0.7009854438763696;0.17063503564709848
A;9.7;1.6347969199543404;0.24536681536087013;2.5672962977962683;1.0652085733984267;0.2149854378562317;-0.08037488926666292;1.2799618304714393;0.3548555139656635;0.7922060362207155;0.15936358131550854;1.3326471603637229;0.40962308137913084;0.6566681364132485;0.1561787054575987
A;9.8;1.614586447250899;0.23625090636580914;2.5096437087172436;1.0372389811942329;0.23188976831334607;-0.07727849506121665;1.2473442104297057;0.3415709986559996;0.782200602340442;0.15500763980569765;1.302047222917797;0.3995749388083012;0.6088560751333922;0.14040994207338642
A;9.9;1.5927908807434474;0.22654735941364912;2.4486669220161463;1.007912748845989;0.24895333512121987;-0.0740515015061396;1.2126164481645318;0.3276727345381527;0.7708196397360645;0.1502880101849673;1.2697763421164812;0.38907103562701684;0.5579669675772294;0.12352523501703772
A;10.0;1.5701329682096161;0.2165316635146981;2.386198207842435;0.9780188418848015;0.26553572524477964;-0.07084619100965517;1.1765911086819187;0.3134350942234523;0.7585367305109649;0.14530290542262492;1.236570865759;0.37825466485363757;0.5056811903574072;0.10602000765799247
A;10.1;1.5472786504630136;0.206455345061884;2.3238832544636967;0.9482548202265226;0.2810400547292513;-0.06780878170617877;1.1400044427655658;0.2990986745173103;0.7457865885725141;0.14013972652427498;1.2030923547366852;0.3672454598891046;0.4535638644080713;0.08838142542033367
A;10.2;1.5247799486303504;0.1966231931057285;2.2632632229760787;0.9194095743684283;0.295276273354073;-0.06496342931539845;1.1037049621699282;0.28503080279048554;0.7329705526697836;0.1349404099620024;1.1701383203943223;0.35633245218604026;0.4026689202392042;0.07063749859483082
A;10.3;1.5033158496914099;0.18741645454099487;2.2063865024342597;0.8925424950653049;0.30802617516972575;-0.06232298797800073;1.0687726828079356;0.2717142652661586;0.7205918072256594;0.12988916827908348;1.1387356755618532;0.3459035853971506;0.3542470225167307;0.05274654477668861
A;10.4;1.483029733248165;0.17895784116533076;2.1535433034387506;0.8678393866267413;0.3193928153912893;-0.059862495675595984;1.0355226956948798;0.2592921517203557;0.7087571552999776;0.12504681992481181;1.1091699107464734;0.3360938534225135;0.308482567311426;0.034620198285779225
A;10.5;1.4640293746390758;0.17136764629290369;2.1049100489180397;0.8454509229159477;0.3295550719251903;-0.057540227086533946;1.0042517714372678;0.24790815241880004;0.6975567776216458;0.1204773553198919;1.0817104035994713;0.3270482096443801;0.26545714676103316;0.016116703751357875
A;10.6;1.4472224216483953;0.165054466479571;2.063356784160458;0.8267403921492535;0.33789574867530625;-0.055450215942953296;0.9762147020192664;0.23808082748713488;0.68762453139162;0.11636503241532736;1.0575455340899742;0.31913627876194184;0.22701098046924528;-0.002548922414355559
A;10.7;1.4334731680124517;0.16037553780025604;2.0316484972137605;0.8129776422515711;0.3437269627990389;-0.053706237516345734;0.9525518368203798;0.23026244299811793;0.6795474711803191;0.11286472268150227;1.0377498037141004;0.31266243907943325;0.19494234081778572;-0.02108306777346769
A;10.8;1.4237370731228585;0.1578070521512167;2.0126047082543135;0.8055671887095439;0.3465864322997909;-0.05237682272708444;0.9346436926324309;0.22504172503540332;0.6740292957941723;0.11020187933621983;1.023627813902955;0.30806935693814275;0.1711469577127609;-0.03934151369485761
A;10.9;1.4189301603151878;0.15778441492026918;2.0089852021053556;0.8058683410701581;0.3459801784131926;-0.051536872469787554;0.9237943657686358;0.2229695755522787;0.6717334596225513;0.10858228129072067;1.0164118736125127;0.30576424752945863;0.15744675819397003;-0.057161571193709904
A;11.0;1.4187073827331678;0.1601191197578693;2.019590667873821;0.8132321016056583;0.3420983740966008;-0.0511741457196524;0.9195107490086194;0.22379475162408902;0.6723759326924466;0.10791146250475947;1.0155957706621264;0.30555444785932107;0.15313222999938247;-0.07449926520834893
A;11.1;1.422322316265244;0.16446073006580342;2.0417204818035977;0.8263106507252296;0.3355094503431335;-0.05122822640263536;0.9207658281148561;0.2270375898101289;0.6753989468422557;0.10802303881618158;1.0201498077817162;0.3070916770953196;0.15666749131478497;-0.09139519062158286
A;11.2;1.4293213776216782;0.17046005703190836;2.0742171864109036;0.8443941835120885;0.32616308907475755;-0.0517265548267245;0.9268120191002218;0.23231710523700855;0.6803743079721514;0.1087418469263941;1.0293346368292982;0.3100493245020748;0.16715172767123931;-0.10771445637113786
A;11.3;1.4390741811889005;0.17767939714375647;2.1154175829383224;0.8665048233775501;0.31408811152849303;-0.05268460043978118;0.9366481816157126;0.23913849814946175;0.6867423534062169;0.10985016588824692;1.0421674337859903;0.31401531074016065;0.18333109946448545;-0.12333643050174459
A;11.4;1.4511664755119673;0.18600466887375244;2.1629918318609693;0.891638650065329;0.30005351385172396;-0.05402639046609714;0.9497805444178375;0.24727825797129377;0.6942607441504425;0.11131079672910538;1.0581135729508304;0.31886202589435086;0.20431067972267414;-0.13833847218398176
A;11.5;1.4653632658913445;0.1953984017730832;2.2151105932302357;0.9190755117273941;0.2847533162924787;-0.05569017267953669;0.9659616450806077;0.2566254088693256;0.7028202700849313;0.1131272547184139;1.076875867711669;0.3245439266267245;0.22954961757118753;-0.15278036048562882
A;11.6;1.4809175874033933;0.20561560596515527;2.2686998113187684;0.9473668001945992;0.26908604260383484;-0.05756276140643335;0.9842576861756918;0.26676106196707217;0.7119480394605731;0.11519558833487231;1.097504552323998;0.3307977603929211;0.2574842513577522;-0.16680242862961592
A;11.7;1.4971053310060491;0.2164313965160405;2.320593272048283;0.975044387810911;0.25401049138458554;-0.05952655606513213;1.0037735151990432;0.2772880201271519;0.7212000769167233;0.11742589340264509;1.1190840531335562;0.3373808794606119;0.2865918056724759;-0.18055317864638454
A;11.8;1.5138355197825435;0.22756772775716794;2.3710536537544176;1.0021275354997439;0.23909183720525284;-0.06166748840883729;1.0241916128119577;0.2880180139769468;0.7303755727538199;0.11968690130686177;1.1413075235016041;0.34408135790672034;0.3166911876621228;-0.1938145251846599
A;11.9;1.5310786984437783;0.23867439640886;2.4213538941269324;1.0289574426583261;0.2233969945124894;-0.06412335606921182;1.04519442829206;0.29874336760634534;0.7392478950856223;0.1218005684584611;1.1638973331977098;0.3506352579090639;0.3477544241450623;-0.2062739490171417
A;12.0;1.5489760851130598;0.24963701232803892;2.4714847311448285;1.055559066090316;0.2067635731326085;-0.06696914242931751;1.0668238870065387;0.3094548764605012;0.7478449180967619;0.12373354547244197;1.1868702015197092;0.3569856781026326;0.38004982174708246;-0.21772877940317414
A;12.1;1.567748085067863;0.2603408405109473;2.52190227469851;1.0822112872724352;0.18889317793613714;-0.07030077945880375;1.0891993258316646;0.32017517070228685;0.7562328939080913;0.12545208168244315;1.2103235619579564;0.3630867721686486;0.41401093148370194;-0.22794222158334065
A;12.2;1.5869552302097274;0.27040795387780747;2.5730222103484905;1.108598331212285;0.1691058202036153;-0.07415800597400501;1.1115795531281982;0.33051766639774094;0.7639750229539697;0.1267533100293914;1.233591587491551;0.36859486409343933;0.44878258095873846;-0.23678160194973685
A;12.3;1.606052471279924;0.2795070987228909;2.624675532140081;1.1341292215465089;0.14700526497399657;-0.07853136098015057;1.1331558221675984;0.34007791480551575;0.7706203097597779;0.12746071707686824;1.255936576166607;0.3731859923880778;0.483287059856945;-0.24419919205996266
A;12.4;1.6247017370943775;0.28719093271278595;2.6784510655399405;1.1593131184272192;0.12165019561612134;-0.0835121001696506;1.1532292345329758;0.34848282516433926;0.7757430688262659;0.12733742733461995;1.2767439605540103;0.3764890859959107;0.5168826235773594;-0.24998768409600913
A;12.5;1.6425369021115581;0.293048583114798;2.7356420423983216;1.1843768327619406;0.09213800687257923;-0.08917022712018019;1.1711032274365714;0.35536333603945813;0.7789261735686779;0.12616076833400847;1.29540622637675;0.3781511305586065;0.5488749958399666;-0.253979039180809
A;12.6;1.65958726321491;0.29724355359346344;2.7945986361191686;1.208831332550921;0.05939770624739005;-0.09542492768419875;1.1869250606478943;0.3608130527726381;0.780357186199609;0.12405927999193977;1.3120036660669259;0.3783078554256334;0.5792669215404018;-0.25624240672805243
A;12.7;1.6760891030989473;0.30008382473851736;2.8530555705632423;1.2323164926000834;0.024888677253990465;-0.10217977300186654;1.201158849681235;0.36509485690940835;0.7804382117701163;0.12125824119887696;1.3268771788068463;0.3772439791492266;0.6084447273242937;-0.25687955867880063
A;12.8;1.6919190310334753;0.30188190495599176;2.9075081465705637;1.2525387220732327;-0.010378330376282108;-0.1092625271365173;1.213928178447997;0.36829593277219885;0.7793598509601107;0.1179356831320284;1.34010801491375;0.37515477070380454;0.6361256146881793;-0.25612289588639925
A;12.9;1.70700246216568;0.3030307729124102;2.95482490990085;1.2676625563210857;-0.04517532102845223;-0.11647801566025517;1.2254677512688659;0.3705661701921894;0.7773948783488738;0.11431859030975744;1.3518737173543762;0.3723033430153446;0.6621130891452793;-0.2542425645395028
A;13.0;1.7216047440625135;0.3036060032607173;2.9939957038163563;1.2781995119927014;-0.07856683193424985;-0.1238243835247137;1.2360850919770314;0.3720834899963421;0.7748194003132802;0.11050464103019664;1.362389315961516;0.36883100409718894;0.6868756386473365;-0.2512312807354178
A;13.1;1.7359298273097492;0.30360947482567635;3.0240150012319216;1.2843486748859636;-0.10994478496638926;-0.13131737434348079;1.245972419125632;0.37296102450743795;0.7718220672812333;0.1065358220752124;1.371784792360092;0.3648115068040161;0.7107831407430361;-0.24707085719915156
A;13.2;1.7503867680595238;0.30323784223720995;3.0479165266112425;1.2900739388840243;-0.13805439171936662;-0.1389367112686375;1.2556669839223282;0.3735048745855938;0.7688452616210188;0.10260206755636148;1.380480281283675;0.36050682533068157;0.7345603773323148;-0.24176222570055472
A;13.3;1.765398728231724;0.30266537900936186;3.0682860446728757;1.2989607812511013;-0.16171694275837822;-0.14667297704770066;1.2657037063488268;0.3740197963790255;0.7663250277035978;0.09887805847288966;1.3888992038390144;0.35616823618819327;0.7589651240019464;-0.23530465218725993
A;13.4;1.7806042156972586;0.30212987975754313;3.0823280369420267;1.3079533126304392;-0.180910761485368;-0.1543401625918328;1.2759295020651749;0.3744369240142298;0.7642425414630782;0.09543231953256637;1.396961684203223;0.3518674369961956;0.7833264417787618;-0.2280165428631591
A;13.5;1.7954381553252445;0.3019442713232321;3.088506433650723;1.31421186558436;-0.19589448367429974;-0.16168480700198318;1.286054723831267;0.37461607983011547;0.7624993401123099;0.09234697899099764;1.4045080531252099;0.34766925958616524;0.8065927617606157;-0.22030779036331083
A;13.6;1.809567140924947;0.30218008812206953;3.0792039429111107;1.310905725880203;-0.20696352831905074;-0.16858645397600425;1.2958288916549883;0.3744359633938288;0.7609895746908144;0.08958858243101098;1.4113761573542263;0.34354718460707767;0.8281671274117812;-0.21245934692387536
A;13.7;1.8225748907503643;0.3029093475669624;3.0473796759868783;1.2913743009113698;-0.21458686959005746;-0.1749092202953797;1.3049255455516153;0.37373357680978714;0.7595521259388196;0.08710468206753141;1.4173518283896973;0.33945090082454143;0.8473086449960867;-0.2047892262283746
A;13.8;1.8342493431534501;0.3044738096689512;3.002034740292773;1.2615591684585432;-0.21874987324565076;-0.18046042808965668;1.3133966890827935;0.37256274407636525;0.7583321973670429;0.08508293670508316;1.4225810435782646;0.3355680851299563;0.86359038272386;-0.1975332503739935
A;13.9;1.8445573413255243;0.30716740337230064;2.9538300400691213;1.2291179476331502;-0.21931376683983927;-0.18509945827719854;1.3214231525321445;0.3710504981459657;0.7575601645077796;0.08372120078739265;1.4273124727556192;0.33210865132565326;0.8769092413188737;-0.19083880435943001
A;14.0;1.8530970039593782;0.31139783311265656;2.91573722121686;1.2027053173058437;-0.21644858526799204;-0.1885763117978927;1.3289394481789572;0.36918125681379976;0.7572855707121242;0.08318647349167918;1.4316060524286627;0.3292431034226495;0.8865196974500371;-0.18506762539585964
A;14.1;1.8595344333580086;0.317539994968576;2.9013315667532638;1.1914844849673063;-0.21035762969487592;-0.190667594366686;1.335913659933869;0.36696128623207613;0.757581675788563;0.08365030656884365;1.4355551642325972;0.32714250342523554;0.891795348048209;-0.18052101600502723
A;14.2;1.8640892567619982;0.3253815318872544;2.9059021813823964;1.192223005794884;-0.20122317822143643;-0.19146470957693396;1.3423956621097624;0.36444259889550423;0.758512803770298;0.08501631817697941;1.439229781054884;0.325761650629079;0.8931689269884124;-0.17719436904888042
A;14.3;1.8670437629570726;0.3345579052288423;2.9199480987025996;1.1984850857063787;-0.18924783338001916;-0.19112753786865877;1.3483916408557874;0.36164754333625737;0.7600756951565923;0.08707864917780483;1.4426266823527962;0.32497068064524415;0.8912295609243905;-0.17507178361803
A;14.4;1.8689112600979523;0.34472897918649803;2.937759619508382;1.2063495393630648;-0.17468389830025366;-0.18985623553746578;1.3540999054541025;0.35872583146798576;0.7624553160913639;0.08978606179737092;1.445959646017009;0.3247375845164302;0.8869037037733207;-0.17385814451259662
A;14.5;1.8702889398575138;0.355472444044616;2.952293419156007;1.2110956145913798;-0.15781039425593768;-0.18789679058844166;1.3597363906536053;0.35583710966044535;0.7658374167242741;0.09305045709131754;1.4494484973665243;0.3250017943864565;0.8812781044872366;-0.17321392273243674
A;14.6;1.8711202546040582;0.36665409758454004;2.9630641772536155;1.2129049866614432;-0.13881711091616822;-0.18527334201714973;1.3651863906231014;0.35292240718622025;0.7701010238726234;0.09668937649468212;1.4529888094878114;0.32566816751103556;0.8743825342257097;-0.17335849872112874
A;14.7;1.8712727413028984;0.3782221955520493;2.9725037591360106;1.2139140101669579;-0.11792250459698117;-0.18197170176273358;1.370321686951403;0.3499160308378464;0.7751197039645366;0.10056616871397672;1.4564786201713202;0.3266714437594209;0.8661051579239256;-0.1745172199115146
A;14.8;1.8707787877583821;0.38990747687846206;2.978829765377748;1.2136448438987637;-0.09543638676794153;-0.17807489646621466;1.3750203732704485;0.3467518242793819;0.780746061560432;0.10440716312712794;1.4597973611781976;0.3278545964576014;0.8566511975414457;-0.17692661085449757
A;14.9;1.8696289655684173;0.40146528622015154;2.980547402673471;1.21181705509236;-0.07165851333541262;-0.17365380489806537;1.379143009239872;0.34335112193433837;0.7868093346059695;0.10793822681550225;1.4628049652698678;0.32906059078475236;0.8461641081083897;-0.1808403201901001
A;15.0;1.8683252869002223;0.41267318525103924;2.978763237538036;1.2088718972425454;-0.0470771557079086;-0.16888723689965524;1.3829304636902329;0.3399002023828004;0.7935413430760789;0.11125590427181109;1.465807729813414;0.3303331159188594;0.8355096269008264;-0.18576104596652954
A;15.1;1.8675913369331745;0.42325061882011816;2.9749556549000253;1.2052124308260694;-0.02233778823319099;-0.16401452799021987;1.3867546685711112;0.3366754137018084;0.8013100342524009;0.11453711897723906;1.4692687844501249;0.33175734944360924;0.8258808747808537;-0.1909707344826188
A;15.2;1.867684603950324;0.43314827832558667;2.9707145621259414;1.2015509633178185;0.0022548242895670256;-0.15912470747910934;1.390774959116385;0.33380334717298865;0.8102483890429593;0.11789723528721119;1.47339717441512;0.33339989496431066;0.8177654225735864;-0.19609941864039726
A;15.3;1.8689044318788022;0.44232892012272984;2.9681484400309426;1.198847733746823;0.026383462261042823;-0.1543153439036793;1.395186487884562;0.33143504845474325;0.8205235232085855;0.12149514508884884;1.4784425860229913;0.33534964354487773;0.8117064551894586;-0.2006924002542867
A;15.4;1.8718508368756117;0.45042890698735416;2.9685915285963507;1.1977961437516553;0.04920698032652204;-0.14980658110324496;1.4002364856139877;0.3297560434211242;0.8323692698218945;0.12531307448036877;1.4847452425455492;0.3375920106002912;0.8087201892620506;-0.2044019948530149
A;15.5;1.8769727808490602;0.4571103015516549;2.972731653807319;1.1988278005622774;0.06992513893666263;-0.14577701524578313;1.4060815576797232;0.32888591754087493;0.8459180082627942;0.1292486747593049;1.4925413357822617;0.340073242227827;0.8096025691438875;-0.20709387891118425
A;15.6;1.8850360678128688;0.46198207199239416;2.982639095869567;1.2030045056938858;0.08770899472427196;-0.1425024421547736;1.4130655329321868;0.3290778017106355;0.861493811929309;0.1333863453578612;1.5022654666793427;0.3428173816574791;0.815610852226321;-0.20813194480890473
A;15.7;1.8967396889915658;0.4646721780122398;3.000206638802535;1.2112854887108409;0.10171547089742639;-0.14023303703858003;1.4214995150390095;0.3305592705055531;0.8793856849138315;0.13777465446525206;1.5143200827162229;0.3458370586299684;0.8278922435629106;-0.20700299432278157
A;15.8;1.911684843470067;0.46536132941032005;3.0246651935048625;1.2232581000961575;0.11199646057535695;-0.13886001018808747;1.4312089978754123;0.3332101181106939;0.8993352222318851;0.1422997515228328;1.5285124661831384;0.34910327056715396;0.8459565317251112;-0.20406132737455351
A;15.9;1.9292048896084422;0.46440079740566986;3.054648560488756;1.238207180850349;0.11897236516119847;-0.13819103599860094;1.441912521362024;0.3368337456173034;0.9209523374798891;0.1468657610410684;1.5444962918230747;0.3525975301448061;0.8689100140354178;-0.1997429746806212
A;16.0;1.948643314546703;0.4620256469059951;3.088783022081584;1.2553579028095685;0.12254579639739482;-0.138009729334176;1.4533038556199251;0.3412088403839473;0.9438548461553431;0.1511895981107667;1.5619668973775438;0.35623928027483664;0.8958289846921694;-0.19497232121558739
A;16.1;1.969187527569292;0.4585486836304682;3.1253185506689807;1.2737430984715044;0.12274352265726662;-0.1380494465203541;1.465007417973979;0.3460635493925661;0.9675804575845177;0.1549635306787529;1.580533683557987;0.35994043065094283;0.9255555448462864;-0.19079779591185186
A;16.2;1.9906036966357694;0.45416339714230425;3.163861438920975;1.29320601342119;0.1199898155632475;-0.13827209929455853;1.4769475192780064;0.3513472892083076;0.9919446569958499;0.15826742161242002;1.6000452095245334;0.36373145053871525;0.9578153744592939;-0.1870471948088337
A;16.3;2.0128173996842276;0.4489820087290415;3.204466335608899;1.3138125652899868;0.11456832374017978;-0.13868513178274489;1.4891205353320167;0.357058955392203;1.016847324222816;0.16120142654902914;1.6204391423682587;0.367649547747956;0.9925451910879843;-0.18346097537682482
A;16.4;2.035347607817587;0.4433450009541495;3.246227408909114;1.3351530209905862;0.10716926252101366;-0.13918147429986538;1.5013472512105501;0.3630743671862309;1.0419740726575437;0.16384206690414338;1.641425566456701;0.37172353868281593;1.0291345958779168;-0.17994178897014024
A;16.5;2.0577589132001566;0.4375791868315977;3.288322581522001;1.3568665098719679;0.0985123492894111;-0.13966895733495965;1.513470696670879;0.36928441131337664;1.0670330961490482;0.16629160957330136;1.662731115877233;0.3759895369561903;1.067024724877509;-0.17632205825796277
A;16.6;2.079635312674075;0.43175477681663654;3.3303428709578995;1.378596426333015;0.08801870598250261;-0.1399701683115504;1.5252894371337575;0.3755305802973723;1.0917889496044033;0.16821351826366282;1.6842172802734403;0.3803555857772114;1.1055266966517827;-0.17369826192920357
A;16.7;2.100445995413538;0.4259257988970351;3.371792411771075;1.3998750655084429;0.0747712566629879;-0.13984948009393916;1.5365351422661142;0.3816020102862918;1.115958859649842;0.16911647708234412;1.7057265460316247;0.38468288117397353;1.143766940346687;-0.17361737168832647
A;16.8;2.120083937925637;0.42004523624366463;3.412709031437629;1.4206190669961156;0.05828025582878915;-0.13923506342557435;1.5471479454261505;0.3874405474780058;1.1394555109969406;0.16879802238447894;1.7272416253365517;0.3889155494498837;1.1814569796845191;-0.17675088291364105
A;16.9;2.1384637242637163;0.414031180622052;3.453213170662334;1.4407655830253256;0.03792504080347214;-0.13805044186930182;1.5570721497743527;0.39298840243371735;1.1622101152993753;0.16701706775949532;1.7487673339917036;0.3929861200148568;1.2183096885211206;-0.18388868558092497
A;17.0;2.1549052054733586;0.40811788137073357;3.492482015809488;1.4597571333929436;0.013353478042205325;-0.13606758459688795;1.5659938034319438;0.39801060676486877;1.1838351559965457;0.16343775298816787;1.7700222469882796;0.39679366635813684;1.2533722508693934;-0.19608492044998016
A;17.1;2.1687715604715576;0.40257986155904213;3.5296429693409923;1.477068199008512;-0.015472155638470042;-0.13309948444536213;1.573629007260621;0.4022978833034099;1.2039482850374164;0.1578469111170584;1.7907088907909525;0.400269482995518;1.2857965653364225;-0.2140121955252816
A;17.2;2.179342370726805;0.397605044659052;3.563896530301193;1.4920883462400703;-0.04919667963201846;-0.12886564839164638;1.5796329768947253;0.40558596041529427;1.2221734410196028;0.1497825763584828;1.810559858876836;0.40327884910744904;1.314471868878531;-0.2391677868673483
A;17.3;2.185927453620876;0.39339297846277077;3.594449542232528;1.5042366706178365;-0.08834693704631214;-0.12311236045240292;1.5836772223952416;0.4076249409569126;1.2381397678633022;0.1388374767403544;1.829306329625446;0.4056985609098951;1.3383694418884104;-0.272848651068351
A;17.4;2.1888200228696206;0.3899105935095699;3.6214880347254006;1.513719575876614;-0.1323651814785638;-0.11597961723468275;1.5859120958708495;0.4085183780720296;1.2519110079904046;0.12529276894760066;1.8469826950492738;0.4075983143717967;1.3578435435007172;-0.31422858864711856
A;17.5;2.1886277032611896;0.3870108071687177;3.645547451267639;1.5209758854314241;-0.18051675960105662;-0.10770358845890504;1.5866338420501762;0.40847290025040195;1.2637149945314174;0.10957983063901189;1.8637404968660736;0.40909292654364515;1.3736078537526524;-0.3620732023393849
A;17.6;2.18572326150351;0.38473353762344775;3.6668218266175927;1.5263254025915902;-0.2317799974417447;-0.09853201626838315;1.5860414395651112;0.4076411455534341;1.2736036647131819;0.09219496232045366;1.8795932287524675;0.41029631516694076;1.3863524762915382;-0.4147141907498053
A;17.7;2.1806170805227145;0.38308798908369024;3.685634071909737;1.5301955798534337;-0.2849662781213187;-0.08876829546084819;1.5844007426003763;0.406225024343545;1.2816908350485434;0.0737349711573021;1.894594651001995;0.41134986775292415;1.3969594221582113;-0.4701752964185175
A;17.8;2.173668319453931;0.381915474968614;3.7023105519713955;1.5327757662861838;-0.3398878658874871;-0.07848740526794984;1.5818724544996314;0.4043222775145452;1.28815724834425;0.05433420140631284;1.908854917747199;0.412289959645304;1.4056119416398758;-0.5282716037027981
A;17.9;2.165095840773506;0.3810936920341881;3.717047688094551;1.5341500589567092;-0.39651005394044603;-0.06771331423993843;1.5785469100702016;0.4019804282854498;1.2931253320435712;0.03403252523589728;1.9224413586732005;0.41312286806016907;1.4123187327063818;-0.5890828865545146
A;18.0;2.155514460301494;0.38037999328241145;3.7304278773506088;1.5346925961988571;-0.4544362611437638;-0.05660268243331501;1.5747076744985797;0.39938269104737323;1.2968986443563892;0.01310691621656268;1.9355490438419194;0.4139296024481012;1.417548530348295;-0.6520480529991417
A;18.1;2.1455235205879024;0.37952425701548265;3.7430303970356977;1.5347597355819556;-0.5133346413518645;-0.04529637846087686;1.5706275665163645;0.3967035245744217;1.299787691314041;-0.008197014572301597;1.9483753993143793;0.41478217241367643;1.4217242147289184;-0.7167180346181325
A;18.2;2.1352021798145033;0.37869968227859463;3.754767808810918;1.534499485114635;-0.5722963630377773;-0.033990367402342514;1.566360823268667;0.3940027297793094;1.3016977084842818;-0.02948400256441097;1.9608190687041525;0.4157431198429178;1.4253478477213548;-0.7815218223216469
A;18.3;2.1245684586333753;0.3781857921232996;3.765435640139833;1.5340710874516983;-0.6301104488979927;-0.022935540630461215;1.5619453817682185;0.3913402587465953;1.3024449667421916;-0.05024036841996704;1.9727127806562619;0.4168953108084512;1.4290677009745707;-0.8443421543133169
A;18.4;2.1135368179473906;0.37814304578425073;3.774830095565884;1.5334605525022944;-0.6862665587657126;-0.012213296667721085;1.5573426167974525;0.38870296782427793;1.3019234422042985;-0.07028192696631841;1.983938433743007;0.41824470757546006;1.433027679856277;-0.9043511225603744
A;18.5;2.1019563684342217;0.3787767981115975;3.7826738942341347;1.5326249116204957;-0.7402189398257626;-0.001905594397289434;1.552484246133453;0.3860612570830195;1.2999858614369835;-0.08942087291267775;1.9943457308574066;0.4197918561482128;1.437367536281684;-0.9606358820348362
A;18.6;2.0901619913774825;0.3801682002001554;3.789118320409745;1.531885368652179;-0.7908335760511847;0.007722305063112778;1.5475548576230018;0.3835589790370353;1.2966462784699022;-0.10712286861918408;2.003911084217812;0.4216532835380895;1.4428063419280264;-1.0113427890258109
A;18.7;2.0785788800232403;0.38229994477310925;3.7944401141033097;1.5315800716049353;-0.8371620248875917;0.016440102890865393;1.542774465549968;0.38135353166194896;1.2920089803046437;-0.12292158623837324;2.012674359540668;0.42394048302804865;1.449968994476908;-1.055013230850708
A;18.8;2.0674493378148004;0.38535793814908104;3.798681878497124;1.5320265554275583;-0.8778882075599252;0.02393915624112619;1.5382875128535929;0.3795761564955953;1.286009840995634;-0.13621039777964228;2.0205512175507865;0.4267704964586492;1.459716971177098;-1.0893358304325318
A;18.9;2.0570379004578623;0.389489251311816;3.8019195182586376;1.5335349281824318;-0.9117846810749466;0.029934588943862472;1.5342474347530413;0.3783580735235219;1.2786138575476578;-0.14642209012138707;2.0274775342291917;0.4302576038617034;1.472835495356648;-1.1122183332147948
A;19.0;2.047382117047695;0.39455182005203326;3.804225614758998;1.5360033391163297;-0.9392461672998582;0.034548639391531744;1.530638156731193;0.3776630574495794;1.2699807298945096;-0.15376022367411935;2.033511587626964;0.4343422343622789;1.488887286651856;-1.1246507635169891
A;19.1;2.038377044702279;0.40037649800834174;3.805601734993873;1.5391879451104025;-0.9611123592859947;0.03801157136539679;1.5273560919101143;0.3773887010230279;1.2602840711038166;-0.15864585644484563;2.038713460293488;0.43890331739711463;1.507125686922734;-1.1283589510802905
A;19.2;2.030179619112645;0.40665292382900464;3.8062663294342034;1.542969032841059;-0.9780954646047579;0.04053640371911449;1.5244406135867585;0.37750838397448483;1.2497977633218191;-0.16142316522870814;2.0432267274052416;0.44388160590321046;1.5268033237229766;-1.1252076477820694
A;19.3;2.0229191483185884;0.4130267186707819;3.8064448346350517;1.547172108768451;-0.9911411090634044;0.04239378641958513;1.5219092457681427;0.3779731889492073;1.2388278776548454;-0.1625459269024958;2.047215568066502;0.44919370925336155;1.5470033021122198;-1.11750248695704
A;19.4;2.0164245734170843;0.4195178732738736;3.806038102411952;1.551653092070377;-1.0005727720497877;0.04366512287874125;1.5196401076939416;0.3787024563749064;1.2274217932901923;-0.16219136343444873;2.050647818927157;0.45474861136963574;1.5674754286940207;-1.1057175683540805
A;19.5;2.0105515511833096;0.4261854047121476;3.804945641667322;1.5563236103823321;-1.0064978051768048;0.04437808376183128;1.5175345163851297;0.3796376738827014;1.2155951668936051;-0.16043452366924704;2.0534718154763842;0.4604808560456708;1.588128654183084;-1.0899274488824133
A;19.6;2.005045958573456;0.4330066266181509;3.8030429586824717;1.560935072709201;-1.0096113841322705;0.044705028848917916;1.515414066505965;0.3806522811307005;1.2034326057998932;-0.15763055846492513;2.05567731760502;0.4662519045477347;1.6084586398486138;-1.0712399416077716
A;19.7;1.9996331001360736;0.43998310369587035;3.8001881718162576;1.5652441175206429;-1.0105730349722002;0.044804942463213315;1.513091730423465;0.38161818265552405;1.1910001625632063;-0.15411722824228313;2.057240818959592;0.47192360345312245;1.6280106646570474;-1.050644517704125
A;19.8;1.9945943204406578;0.4467995707472472;3.7966716562032836;1.5692478682683637;-1.0097707191727814;0.04482169142793735;1.5106948549848092;0.38256535370177147;1.1785520371814542;-0.15008313905770265;2.058305599790182;0.47750186301396313;1.6462129230317366;-1.0296056473830504
A;19.9;1.9903736138627675;0.4530097831118507;3.7929258638507832;1.5729807736759076;-1.007659574191445;0.04493454262508312;1.5084366815676624;0.383559511686407;1.1664309417468228;-0.14574253466514087;2.059087512534033;0.4830208491738781;1.662341431870935;-1.0100268591187884
A;20.0;1.9871845752468118;0.45843785959676175;3.789165024196018;1.576505888199768;-1.004302627214825;0.04518256538563703;1.5064210432189604;0.38464057151798414;1.154789938796739;-0.1411257038705216;2.059657201994683;0.4885027711162051;1.6761816510847432;-0.9925072579021723
A;20.1;1.9852932457844863;0.46288193940223454;3.7856441907102862;1.5799149697985095;-0.9997229313811822;0.0455986203964458;1.5047838300815677;0.3858654811382909;1.1437933057933503;-0.13624108695275616;2.060099064836738;0.4939869755626516;1.6875244870840795;-0.9776586416680573
A;20.2;1.98492786337576;0.4659822505410709;3.7826490173970218;1.5831157345724423;-0.994641820072129;0.046409197943667824;1.5036081505370582;0.38722830290987886;1.1337555359582492;-0.13143430325145644;2.060599592027203;0.4994343530624006;1.6955898275977042;-0.9674797370853874
A;20.3;1.9861866840774287;0.4674722197710599;3.7803644622191594;1.5859781300587912;-0.9897880323539585;0.04782441740001264;1.5029047539361677;0.3886915335790242;1.1249383218217233;-0.12705575571536265;2.0613012473766394;0.5047759081697123;1.6996989853905937;-0.9636992444273176
A;20.4;1.9894170335803258;0.4668932202532874;3.779176981145099;1.5884442246313286;-0.9859213921302423;0.050095341852267605;1.5028298015812211;0.39027913150897753;1.1176960257444541;-0.12346484050520345;2.0624358681934574;0.5100061685248178;1.6989509275079406;-0.9686652673856742
A;20.5;1.9949231295719378;0.4638285820524537;3.779438083741921;1.5904512380107905;-0.9837753249411563;0.053457889743714126;1.5035152945944361;0.39200716970049676;1.1123633800934751;-0.12100722467055292;2.0642212043743156;0.5151106420405549;1.692518608937199;-0.9845446568302734
A;20.6;2.002468784664895;0.45850025088766166;3.7809982821970696;1.5920084918268502;-0.9831717788522045;0.057812040163232936;1.5048298725449776;0.39383054531992556;1.108841844176231;-0.11959549365755606;2.066535651880355;0.5200384254632149;1.6808049522343858;-1.0103937944326304
A;20.7;2.011707391159046;0.451283621998539;3.783597038805663;1.5931695408318998;-0.9836472046126197;0.06296060484475197;1.506599687297097;0.395701723028445;1.1069044694340526;-0.1190049869742591;2.0691675745708293;0.5247494996961168;1.6645426899583065;-1.0444518769679014
A;20.8;2.0222402401939963;0.4425622491453458;3.7869478194829913;1.593916649902221;-0.9849207431116511;0.06874842708812112;1.5085954376536037;0.39754285786701793;1.1063944755019666;-0.11909763295474107;2.0719473884878647;0.5291505365317977;1.6444123385372045;-1.0850675350394816
A;20.9;2.033587560020797;0.4328117943702656;3.7906912688200443;1.5942406189212077;-0.9865912647169797;0.07497373493587167;1.5105487442101264;0.3992665339308967;1.1070914585796086;-0.11967735381700706;2.074657784888716;0.5331424695525055;1.6212701493655928;-1.1301520634689233
A;21.0;2.0456372655329806;0.42215507443225864;3.794770816866466;1.5942073545554143;-0.9884684462327655;0.08154976679022363;1.512426504983459;0.4008691067579093;1.1088788914605026;-0.12064519668328977;2.0772068971228395;0.5367387456651551;1.595406812014378;-1.1790998319156358
A;21.1;2.058360852705308;0.4106248024138601;3.799203177908433;1.593877054381335;-0.990481132308366;0.08843504725874807;1.5142387788163383;0.4023594299800113;1.111700658232781;-0.12195731203557969;2.0795588289905265;0.5399619839251923;1.566953891012865;-1.2317140321928903
A;21.2;2.0715228959347494;0.3984868232313099;3.803823635475309;1.5933386587813168;-0.9922320509055442;0.0954640864966696;1.5158960784101154;0.40372150297413967;1.1153301105793325;-0.12341487573181631;2.0815341093529023;0.5428220954021499;1.536480139867436;-1.2867100471386408
A;21.3;2.084915574494352;0.38598127139879246;3.808488197066156;1.5926862669090323;-0.9933418536473138;0.10248066054861571;1.5173282722885588;0.40494655081912967;1.1195458261334483;-0.12482657184663282;2.0829671824760467;0.5453392120727703;1.504515771857136;-1.3429068478640076
A;21.4;2.098261445163214;0.373369278352885;3.813014947407197;1.5918814636649028;-0.99373683706124;0.10940150447809449;1.5183623896040288;0.4059745143864575;1.1243050898565254;-0.12614533963520103;2.083806920661746;0.5474225449179597;1.4715482786693102;-1.399169280806337
A;21.5;2.1111931684709813;0.36098810102081647;3.817156224379488;1.5908464887357567;-0.9933626226514516;0.11613315197114993;1.5187565233435656;0.40671800169479155;1.1295774350011278;-0.12733295987169768;2.083993843033718;0.5489362890055309;1.4381732864690662;-1.4540790457351136
A;21.6;2.12360533162217;0.348919052802513;3.8208671111246417;1.5895541823499908;-0.9923185121222584;0.12266964478387665;1.5184466915372425;0.4071520985524071;1.13538565322974;-0.12842291327856614;2.0835660155407076;0.5498370654495082;1.4045638032566004;-1.5073022369155566
A;21.7;2.135397542459983;0.337236061971371;3.824106372666785;1.5879650549279827;-0.9907416629789623;0.1290163473560786;1.5173668109820504;0.4072500811231752;1.1417733649456743;-0.12946595994569599;2.082581381642254;0.5500742610427869;1.370875766924975;-1.5585436800011188
A;21.8;2.146135119200901;0.32635117560239824;3.8265755699835715;1.5860468646847297;-0.988403341439307;0.13501814303982806;1.5152627080168877;0.4069258006452241;1.1485868554557648;-0.1303405179335293;2.0808753310690635;0.549537286657551;1.3378485807033442;-1.6060756973093824
A;21.9;2.1554177462541055;0.31664411767469236;3.8280028111433086;1.5837941191156792;-0.9850496605806001;0.140518828954467;1.5119160901742745;0.4061072333607285;1.1556392428789337;-0.13091300945836792;2.0782671767689553;0.5481459257536323;1.306171607269544;-1.648316200514241
A;22.0;2.1627860746109064;0.3085653602355345;3.8280578134978906;1.5811520264830223;-0.9804496523970148;0.14535938605195708;1.5070478076569493;0.40470123530111657;1.1627995106562672;-0.13105918166718666;2.0746204868340747;0.5457676912785652;1.276663199417218;-1.6833183672395116
A;22.1;2.167794008063682;0.30254499030362414;3.8264248573750894;1.578070765385676;-0.9743880399897513;0.14938732483117656;1.5003917166340344;0.40261808635476903;1.1699271861878913;-0.13066257189355035;2.069790960044277;0.5422797084213391;1.250095259838087;-1.7092633163035522
A;22.2;2.1705901959288103;0.2984135261932668;3.823252066535769;1.5746113264716914;-0.9670319996644832;0.15266053246466216;1.4920894443221329;0.39990751473497177;1.1769964693826758;-0.12978753911848884;2.06384934367692;0.5377737418608746;1.2262205941357038;-1.726934713681377
A;22.3;2.171519458441166;0.2958197035747787;3.818828242296556;1.570860908579621;-0.9586652776406073;0.15530470979124278;1.4824108501248503;0.39666531539236694;1.184038472694084;-0.12855267437788953;2.0569638295706385;0.5324028929418625;1.2045000923722604;-1.7378437447529116
A;22.4;2.1707525593060444;0.29453045264478295;3.8133470403571774;1.5668957781169581;-0.9495185370708086;0.15739779315857438;1.4714478692343391;0.3929445755491603;1.190985819684654;-0.12705541291603595;2.049147722716522;0.5262849962498111;1.1845140116392265;-1.7432564801222021
A;22.5;2.1685440747526106;0.2942292052609581;3.8070660912747183;1.5628083101485002;-0.9398726623385496;0.15904666811991452;1.4596802051088673;0.3888185967277238;1.1977841330009316;-0.1254168287881381;2.0404437421145705;0.5195695205421096;1.1657011490959484;-1.7448010855066194
