Condicao;Tempo_s;Ch1_HbO;Ch1_HbR;Ch2_HbO;Ch2_HbR;Ch3_HbO;Ch3_HbR;Ch4_HbO;Ch4_HbR;Ch5_HbO;Ch5_HbR;Ch6_HbO;Ch6_HbR;Ch7_HbO;Ch7_HbR;Ch8_HbO;Ch8_HbR
A;-20.0;-0.46870394482900135;0.019738181923683484;-0.5591381362854397;-0.0467327530069408;-0.501682718475589;-0.11688411797811682;-0.4756155670711566;-0.1980865186906975;-0.4491735486579138;-0.06426347871308646;-0.5226204075130996;-0.11477085958695987;-0.654982832263177;-0.24974280691963724;-0.43290277926362286;-0.09757540825475264
A;-19.9;-0.4660162462304873;0.021363054814661275;-0.5572172331904381;-0.04595875694009255;-0.501464579369097;-0.11555798521242;-0.4758267846558333;-0.1967440725745382;-0.44854852485759533;-0.06371052758805984;-0.527970913499578;-0.11148538810472708;-0.6561931855352778;-0.2484013613906635;-0.437534763257851;-0.095514440904652
A;-19.8;-0.464067005226382;0.023102412733792654;-0.5558729199571983;-0.04495792071970506;-0.5018411824537266;-0.11413139702021535;-0.47643384178716097;-0.1952524723916511;-0.448396269031317;-0.06317046979175878;-0.5335858708626198;-0.10799855187981677;-0.6579083149474485;-0.24693420372662267;-0.4427622131235527;-0.09330691631769739
A;-19.7;-0.4626127497885717;0.02494338885831837;-0.5548775618403736;-0.04378644130145126;-0.5025906415089274;-0.11262689631819889;-0.47727622503688316;-0.1936323310913961;-0.44857712605390887;-0.06262446418905387;-0.5393380474458471;-0.10435107085088902;-0.659938086760139;-0.24533597416138964;-0.44837188421480967;-0.09099130975981229
A;-19.6;-0.46169333950291147;0.02687584754936445;-0.5542790649307152;-0.04246201334676325;-0.5037232424316667;-0.1110797986425629;-0.478450665162403;-0.19186412174770773;-0.44913338430730754;-0.06205211145122025;-0.5452378784540599;-0.10055179807070047;-0.6622772371123657;-0.24358606180224918;-0.45434432844281325;-0.08857060901035307
A;-19.5;-0.4614027823894915;0.0288883704697378;-0.5541818294208491;-0.04100048127452638;-0.5052888382312091;-0.10953582532111739;-0.48011932460990536;-0.18991609857304237;-0.45014632757950057;-0.0614277044525986;-0.5513228230521721;-0.09660497375925736;-0.6649474299199589;-0.24165478377934146;-0.4606871415839233;-0.08604234851875425
A;-19.4;-0.4618103147091066;0.03097517820372442;-0.5546558876770593;-0.03940107041679841;-0.5073343728326023;-0.10801064382152337;-0.4823677644367903;-0.18777589998997168;-0.4516658217209528;-0.060744977167781045;-0.5576159619125765;-0.09251292501726738;-0.667986206668326;-0.2395382707360172;-0.46742620385306033;-0.08340279119314165
A;-19.3;-0.4630154928566208;0.033130938341392024;-0.5558005161105122;-0.037658364679568734;-0.5099328801240901;-0.10652037073811993;-0.4853069679741031;-0.18542779922090258;-0.4537604119933487;-0.059998081174946094;-0.5641555286593389;-0.08827474559230719;-0.671452166301477;-0.23723196768253807;-0.47460974858563354;-0.08064419664551892
A;-19.2;-0.46496598163346015;0.03534137870118936;-0.5575840994894286;-0.03581270608609177;-0.5130073833575546;-0.10511191300398526;-0.4889862349130052;-0.18285421610208275;-0.45642109140672726;-0.059158086957707745;-0.5709088864979046;-0.08391159416776262;-0.6752623513864258;-0.23470787961573336;-0.48213316316265775;-0.07778411734811463
A;-19.1;-0.46755004351249063;0.037592275713907775;-0.5599174486461802;-0.0339096998624715;-0.5164339394897892;-0.10382556717947722;-0.493396069559477;-0.180047363261175;-0.4595987416924556;-0.05819952267120776;-0.5778141643959511;-0.07945051254425284;-0.6792995289397092;-0.23194500741374569;-0.4898550800052561;-0.07484720009783707
A;-19.0;-0.4707667435565295;0.039868444873075504;-0.5628195169950905;-0.03198771674381096;-0.5201788304262198;-0.1027163644260245;-0.49863843571141064;-0.17698249944603361;-0.46331932566034606;-0.0570885358968809;-0.5848664586426713;-0.0749098005335247;-0.6835093027559607;-0.22890820098505138;-0.4977028637870635;-0.07184483593523439
A;-18.9;-0.4745980246627708;0.04215535591875064;-0.5662931261110691;-0.0300846633299372;-0.524194948571072;-0.10183500563855752;-0.5047960245434373;-0.17363776082025062;-0.4675959696766565;-0.055794363174730854;-0.5920523470192522;-0.0703083699888376;-0.6878293069159112;-0.22556601109246532;-0.505594897949619;-0.06879034609337609
A;-18.8;-0.47895754934057333;0.04445068223073001;-0.5702529142957378;-0.028200780906909806;-0.5284195578615689;-0.10116045988359623;-0.5117661650102656;-0.17003758058908858;-0.47236298033215984;-0.054333270252898025;-0.5993180146205628;-0.06566169543939893;-0.6922299048845426;-0.22195049535109046;-0.5134850829072057;-0.0656958007210875
A;-18.7;-0.48377051786387604;0.046755657413717344;-0.5746167358309187;-0.0263224404399649;-0.5328146817024093;-0.10065285280683423;-0.5194170030179963;-0.1662180178494479;-0.4775514423199736;-0.052733814139752866;-0.6066149394268603;-0.06098243381435786;-0.6967118362437175;-0.21811013754020347;-0.5213618496640819;-0.06256851463314206
A;-18.6;-0.4888814486954809;0.04907101315895179;-0.5792345833959089;-0.02444757519516383;-0.5372594003956674;-0.10027437187697341;-0.5275716582255905;-0.1622121960806071;-0.48304477618313246;-0.05102460221892091;-0.6138535481805745;-0.0562868031948236;-0.7012105721125357;-0.21409002494621365;-0.5291391143394311;-0.059428794858721545
A;-18.5;-0.49412173576569707;0.05139911930874508;-0.5839410311906938;-0.022569436881939353;-0.5416280355256493;-0.09997707393865429;-0.5360244209806622;-0.1580602821164092;-0.4887130270206077;-0.0492408016939212;-0.6209373034422274;-0.05159100139307249;-0.7056639053935134;-0.20994436864151123;-0.5367335361932462;-0.05629718432745889
A;-18.4;-0.4994880991390538;0.053737369373716426;-0.5887271756870351;-0.0206827916658483;-0.5459377557747231;-0.09974733428208449;-0.5447381785709515;-0.15378285347986953;-0.494542543564946;-0.04739316356420087;-0.6278605854813737;-0.046907098634492606;-0.7100951201609007;-0.20569744905521414;-0.5441634743947006;-0.05317400737740474
A;-18.3;-0.5049916351007422;0.056082137173048885;-0.593601813371003;-0.018786119867125528;-0.5502118183955567;-0.09958077667450826;-0.5537051463326987;-0.14939287019710523;-0.5005327883752653;-0.045486836316500856;-0.6346269388803059;-0.04224617884609039;-0.7145256724054354;-0.20136401164977347;-0.551446080791786;-0.050059134699720786
A;-18.2;-0.5106166419777907;0.05843279237183552;-0.5985381917710111;-0.01686646758915078;-0.554469580863235;-0.09944839093800795;-0.5628479325928941;-0.14492335035667647;-0.5066548294154058;-0.04354175999580168;-0.6412233253555906;-0.03762089810170366;-0.7189905054346628;-0.196984040164617;-0.5586125297415432;-0.04695167212587137
A;-18.1;-0.5163600489510536;0.0607886881782953;-0.6035219289148808;-0.01491068258089534;-0.5587414357036522;-0.09932339974607807;-0.5721015376933067;-0.14040556383632996;-0.5128880533117046;-0.04157643232853836;-0.6476446575721999;-0.03304310131286314;-0.7235305524828242;-0.19259469804336593;-0.5657020426937969;-0.043849162710107414
A;-18.0;-0.5220685395141968;0.06315093628863355;-0.6084168724977106;-0.012921521660265611;-0.5628932537781566;-0.0991791403838631;-0.5813228880334522;-0.13585725999255072;-0.5191216619567216;-0.0396146198649836;-0.6538076612697266;-0.028524337590428495;-0.7280617050877813;-0.18822524857994516;-0.5726085507161898;-0.04077448091896407
A;-17.9;-0.5275244194326838;0.06552152710762726;-0.6130298812420527;-0.010905243632744366;-0.5667293728278668;-0.09898244329859374;-0.5903189827390385;-0.13129831836457573;-0.5252033617273817;-0.03768535082478408;-0.6595942257985961;-0.024077655228482264;-0.7324581992355919;-0.1839104215662175;-0.5791765893505865;-0.037759540890477616
A;-17.8;-0.5326368946441695;0.06789988996446361;-0.6172867926964258;-0.008868340977753242;-0.5701659521078213;-0.09872443509702311;-0.5990191730755461;-0.12673477799763688;-0.5310674057449587;-0.035800593338090714;-0.6649593869937931;-0.01971230083978348;-0.736658710232728;-0.1796603610036458;-0.5853315700555957;-0.03482055569218723
A;-17.7;-0.5373051734869154;0.07028593297595975;-0.6211065941442317;-0.006818447155973573;-0.5731065928072674;-0.09839698379955042;-0.6073502978097087;-0.12217002701960489;-0.5366422238687516;-0.03397238901964794;-0.6698538600944017;-0.015436504678511653;-0.7405912947892093;-0.17548283446297308;-0.590987360441547;-0.031975606942123314
A;-17.6;-0.5413367303471501;0.07268023141327884;-0.6243094122932709;-0.004757447460853825;-0.5753979364311137;-0.09796090795643142;-0.615112425816263;-0.11763863893631843;-0.5417887570858744;-0.03222966089024748;-0.6741712302525169;-0.011267627274902381;-0.7441677318419462;-0.17142581487895026;-0.5960312913770434;-0.029249424109201172
A;-17.5;-0.54457681810955;0.07508218861693194;-0.6267468023216329;-0.0026859971230583923;-0.5769273267461426;-0.09738056520767913;-0.6221305574508929;-0.11317753598873814;-0.5463923181041679;-0.030597295533619118;-0.6778259438221328;-0.007223977216302302;-0.7473276516153673;-0.16753625270949968;-0.6003843596465082;-0.026660641203550384
A;-17.4;-0.546806739284702;0.07749561484046108;-0.6282194713907945;-0.0006031905116463676;-0.5775104533740789;-0.09661138345625453;-0.6281867386072193;-0.10881631194754604;-0.5502948708442403;-0.02910963789766008;-0.6806993746165384;-0.0033176695640166898;-0.7499615104783688;-0.16386092308083278;-0.6039104344902153;-0.024238007099099512
A;-17.3;-0.5478184392360044;0.07992319017740623;-0.6285365815927619;0.0014903062994680027;-0.5769753642581401;-0.0956120285655615;-0.6330721968165083;-0.10458581503173914;-0.5533467030284447;-0.027797568003416373;-0.6826788221358742;0.00043767611785572313;-0.7519670822795108;-0.16044564858728716;-0.6064825605440749;-0.022008367503080883
A;-17.2;-0.5476927902706361;0.08236022963219103;-0.6277760351223769;0.00358973012388919;-0.5754073511524549;-0.0943993362188591;-0.636856303437443;-0.10048789842843497;-0.5555963538888786;-0.02665070530133118;-0.6838184952546067;0.004033735525361237;-0.7533880715898338;-0.15727944945211725;-0.6081580843134873;-0.019963007129686794
A;-17.1;-0.5465984830275152;0.08480227774851645;-0.6261009778603883;0.005692468908932824;-0.5729637373482337;-0.09300600986380303;-0.6396963087226846;-0.09650980954529054;-0.5571510165215541;-0.025648775714602223;-0.6842248851271764;0.0074689200005648715;-0.7543076478553328;-0.15433036122334176;-0.6090460328096547;-0.018082923767479997
A;-17.0;-0.5446422924376515;0.08723848279490465;-0.6236058756300871;0.007784405992154575;-0.5697662868715945;-0.09146158940192173;-0.6416842296965148;-0.09266246179507664;-0.5580833570291599;-0.02476701448971852;-0.6839643119724537;0.010724893296187865;-0.7547915782879349;-0.15158800117174387;-0.609229377200613;-0.016353933670485432
A;-16.9;-0.5419729778733968;0.08965703803737135;-0.6204240909382532;0.009851020386957288;-0.5659745783200778;-0.08980372270997261;-0.6429518167504966;-0.08895275505804179;-0.55849478431547;-0.02397477939910342;-0.6831276134243458;0.013784377602928721;-0.7549271883835944;-0.14903389236753917;-0.6088187081917162;-0.01475653466021587
A;-16.8;-0.5386910552690196;0.09206185629281549;-0.616662397779284;0.01190109451252308;-0.5616731135934803;-0.0880441955079343;-0.6435928640106559;-0.0853629221076666;-0.5584410403283142;-0.023268636772731277;-0.68178517810526;0.01665782298975138;-0.7547559169814164;-0.14664347672494404;-0.6078744498090671;-0.013280197014600148
A;-16.7;-0.5348530978474049;0.09445785494225323;-0.6123867027961687;0.013943387559771203;-0.5569071114017454;-0.08618744621258845;-0.6436610809175365;-0.08187918899997637;-0.557949041703715;-0.022649331890533198;-0.6799818826015889;0.019355123796114704;-0.7542964694428731;-0.14439999928609826;-0.6064287321547059;-0.011919333055046444
A;-16.6;-0.5306359700785492;0.09684818216005642;-0.6077761155677592;0.01598746917068805;-0.5518272129267254;-0.0842578218749006;-0.6433222612648786;-0.07847419858665905;-0.5571248924752306;-0.022106522631427872;-0.6778339835332456;0.021890656904493433;-0.7536271409078479;-0.1422629771922841;-0.6045903061552345;-0.010654798799855314
A;-16.5;-0.5262128555294066;0.09923734227905445;-0.603007570182708;0.01804488525622805;-0.5465783719461283;-0.08227795226573775;-0.6427396719101006;-0.07511857566078106;-0.5560717851497632;-0.021631055932044063;-0.675456014727783;0.024281446303364262;-0.7528230300636825;-0.14019138452764413;-0.6024646513639507;-0.009467697519258245
A;-16.4;-0.5215908038687944;0.10161252604045945;-0.5980779871232977;0.020093462933084005;-0.5412012999142499;-0.08026867091280021;-0.6419178392559779;-0.07183892834311134;-0.5548036516543053;-0.021197586306078264;-0.6728546491393113;0.026501091638831298;-0.7519020896939406;-0.13819423205763037;-0.6000750013037379;-0.008353357140992834
A;-16.3;-0.5167558943571464;0.10395421865997356;-0.5929561956409808;0.022099403971846954;-0.5357331616156191;-0.07825546631867208;-0.6408390731096718;-0.06867760607628792;-0.5533269319160352;-0.020773280981392084;-0.6700214194802596;0.028509175953815635;-0.7508806793609635;-0.1362910152355834;-0.5974398285466229;-0.0073083638448938615
A;-16.2;-0.5116754935683367;0.10625694992744439;-0.5876082038397135;0.024051556421112785;-0.5301676891058724;-0.07624492081538659;-0.6394721194588957;-0.06565420633762464;-0.5516250089229686;-0.02034338320190887;-0.6669414113646681;0.030291208193658825;-0.7497514620466443;-0.134493753999525;-0.5945526667477132;-0.006332189844769687
A;-16.1;-0.5062959113084986;0.10851370444564523;-0.5819779326696954;0.025935437191944466;-0.5244837047624555;-0.0742429112643137;-0.6377666997063862;-0.06279379403598995;-0.549669928349287;-0.019891515716326857;-0.6635861694863499;0.03182892828382222;-0.7484987879364384;-0.13281993134170467;-0.5913958253444456;-0.005426112414729012
A;-16.0;-0.5007068348633332;0.11070984739534495;-0.5761389357575624;0.02772890637572889;-0.5187968412361332;-0.07228019150295051;-0.6357981495581777;-0.06011581217966988;-0.5475276536578733;-0.019391071756045264;-0.6600135336774624;0.033098320096002;-0.7471826251153262;-0.1312641936953769;-0.5880483395606877;-0.004577777813810968
A;-15.9;-0.49503286984290806;0.11283600628942647;-0.5702037330751475;0.029419914464937413;-0.513242440349905;-0.07038488232255258;-0.6336733918641722;-0.057625853654874604;-0.545281219498353;-0.018821962770676492;-0.6563047642529911;0.034087667950536193;-0.7458744470116327;-0.12981032813572302;-0.5846066771855849;-0.003771939223721432
A;-15.8;-0.4893247608427762;0.11487176078703065;-0.5642024914758945;0.030974744147909128;-0.5079120429610793;-0.06859212402908543;-0.6314369404555453;-0.0553566866812627;-0.542980002183616;-0.018148065534608016;-0.6524906040347185;0.03476145525508034;-0.7446200067764108;-0.12846365451776798;-0.5811295007543347;-0.00299903411918212
A;-15.7;-0.4836455461138547;0.11679874735562823;-0.5581790944191409;0.03236388324960782;-0.5029040564777238;-0.0669344046228666;-0.6291425424547317;-0.05333619142707491;-0.540678351917756;-0.017337928468414532;-0.6486104740307699;0.03508906152058877;-0.7434693197487334;-0.127226217775938;-0.577682247643363;-0.002248973721600045
A;-15.6;-0.4780323456936282;0.11863345393551317;-0.5521886130118876;0.03361576109760822;-0.4982295872713731;-0.06539832833949344;-0.6268233373443648;-0.05153603464651635;-0.5383851287324521;-0.016404822051600654;-0.6446997384977635;0.03510383353709301;-0.7424275274955487;-0.1260802879511438;-0.5742847613360365;-0.0015160585777795887
A;-15.5;-0.4724834347496145;0.12040025035048174;-0.54625739764694;0.03477028922752545;-0.49384981277893836;-0.0639582122343949;-0.6244830417112759;-0.04991761180409515;-0.5360806388396471;-0.01537002098783713;-0.6407714435239349;0.034852936960724;-0.7414723255200082;-0.1250087664715709;-0.5709240903969182;-0.0007983581742250223
A;-15.4;-0.4670958824264231;0.12212331326525216;-0.5405053238443145;0.03587261702878308;-0.4898146218934869;-0.06259005596755873;-0.6221975823086607;-0.04843376434386659;-0.533798336934872;-0.014267739679694635;-0.6369031306716169;0.03438766490144651;-0.7406321358346775;-0.12398012059990293;-0.5676548368425376;-8.780958441700903e-05
A;-15.3;-0.4619649790189735;0.12383181488868367;-0.5350555460839539;0.0369762566253824;-0.4861628318163502;-0.06126353048131428;-0.6200418425186127;-0.047028874629780226;-0.53156669755825;-0.013138561821667949;-0.6331728206971912;0.033768877384042995;-0.7399299035955273;-0.12295955377794066;-0.5645263908959404;0.0006232604294789112
A;-15.2;-0.4570354228252844;0.12553429779517966;-0.5298679209692141;0.03809138743344853;-0.4828326513120249;-0.059970254885091556;-0.6179834161152211;-0.04569230407301106;-0.5293516358204711;-0.01197952532260782;-0.6295522708804313;0.033015406248640744;-0.7393273184985363;-0.12194780772440428;-0.5614999519468462;0.0013327182384959002
A;-15.1;-0.45225316988411546;0.12723330237385344;-0.5248975125871524;0.039218368754551314;-0.47977336514555624;-0.05870764219953717;-0.6159901699015853;-0.04442259686120842;-0.527124184126742;-0.01078301033362461;-0.626012126306831;0.03213600321374077;-0.738791402184348;-0.12094978961613823;-0.5585421333030887;0.0020378374426863743
A;-15.0;-0.4475481201476681;0.12894650219799075;-0.520098381549178;0.04038169718251794;-0.47689402512606893;-0.05745776374170486;-0.6140196108999669;-0.04319592203890554;-0.524836542108531;-0.009552531802682118;-0.6225170845937935;0.031165290660911893;-0.7382694595034058;-0.11996193820672651;-0.5555977767164695;0.002736560793518805
A;-14.9;-0.4428382767220471;0.13068927992811297;-0.5154111930807321;0.041601458019672855;-0.47409586854344266;-0.056204224200363306;-0.6120208564597034;-0.04199229111584124;-0.5224361575115966;-0.008289162890774193;-0.6190232013156276;0.030134188987627653;-0.7377037642542019;-0.11898387903945018;-0.5526046928040298;0.003425388614894942
A;-14.8;-0.43825767132621873;0.13247478516346067;-0.510979569156599;0.042907528775661063;-0.47147841683420033;-0.05492960349175657;-0.6100922617626434;-0.04077736985904146;-0.5199825379525915;-0.007030852328840709;-0.6156292641303445;0.029079005706581285;-0.73714965042873;-0.11798771323427548;-0.5496515159902611;0.0041112735449502225
A;-14.7;-0.43401361868022814;0.1343209620786734;-0.5070206192723496;0.04434205431710492;-0.4691999645027565;-0.0536121590709584;-0.6083835305958054;-0.03950407690474922;-0.5175705627342468;-0.005830295010593289;-0.6124838511643818;0.02804681225456651;-0.7366976425128922;-0.1169321795192193;-0.546874778900106;0.004806399725682198
A;-14.6;-0.43018712080527877;0.13622750980467924;-0.5036156002093195;0.045909527391525984;-0.46733133535664173;-0.05224643317306654;-0.6069569399466435;-0.03816055935329388;-0.5152412720899431;-0.004708553237930069;-0.6096460208538206;0.027050829839840418;-0.7363830608388513;-0.11580533906445734;-0.5443334953558185;0.005511708698667128
A;-14.5;-0.42687795106703774;0.13819269322649497;-0.5008621538158353;0.047613378259680594;-0.4659619786421887;-0.05082741982211125;-0.6058873878484814;-0.03673526895800272;-0.5130461950882959;-0.0036902937740119768;-0.6071868975778818;0.026103040406523448;-0.7362517219126143;-0.11459379577545636;-0.5421004928293804;0.006228484792950795
A;-14.4;-0.42422505484536543;0.14024364291271407;-0.4989189555222282;0.04950578750525736;-0.4651751067185135;-0.049330739486965314;-0.6052799545792711;-0.03517440877101041;-0.5110435806294742;-0.0028152430805938877;-0.6052109960162451;0.0252616405892514;-0.7363549841389485;-0.11325831789554197;-0.5402602214291772;0.006970103582506049
A;-14.3;-0.42231281142754984;0.14240648903414854;-0.4978916554674928;0.0516336110514084;-0.46500593683248503;-0.04773493358651493;-0.6052032860585603;-0.03342986531957237;-0.5092655688012151;-0.0021108750437726087;-0.6037856828911199;0.024580911543792716;-0.7367166709224282;-0.11176719638649146;-0.5388595879366722;0.007747615577503808
A;-14.2;-0.4213286971713295;0.14470709242934898;-0.4979839598170095;0.054050907004153714;-0.4655813530166766;-0.04601178135019257;-0.6057929571711558;-0.03144477193025175;-0.5077939898481194;-0.0016328885621152978;-0.6030483684406995;0.024120397000555904;-0.7374131798111554;-0.11007650933286506;-0.5380173252346907;0.00857416468119343
A;-14.1;-0.42144204408575003;0.1471713833388426;-0.49938170352917055;0.05681029223052203;-0.46701212746851883;-0.04413570892913743;-0.6071735263360463;-0.029164074054827793;-0.5067033973370147;-0.0014301733497195102;-0.6031237614617604;0.023938340484150444;-0.7385122977145437;-0.10814418011648019;-0.5378397387799971;0.00946336071201781
A;-14.0;-0.42252177752174536;0.14978340379770838;-0.5019497202774108;0.059876703030640854;-0.4691983347469195;-0.04212050564994563;-0.6092647565483427;-0.026613521511810845;-0.5059398338553933;-0.0014735300799220141;-0.6039232094490599;0.024014892636214036;-0.7399483510119511;-0.1059956631475778;-0.5382459190247939;0.010403003136453925
A;-13.9;-0.42436354037583257;0.15251117412591153;-0.505469875370852;0.06318504586920692;-0.4719956356546513;-0.03999041277125581;-0.6119337336845776;-0.023845824074377298;-0.505419223383516;-0.0017188028039019088;-0.6053053714283552;0.024303072612656962;-0.7416255149900124;-0.10367770496817563;-0.5391124169320207;0.011370872561379919
A;-13.8;-0.4267736885175477;0.15534314223090817;-0.5097483924112103;0.06670124427593294;-0.4752447396354631;-0.03776957832505623;-0.6150647094795776;-0.020888728660797717;-0.505062737977295;-0.002107475496663902;-0.6071382234515612;0.024783304147218743;-0.7434477301220577;-0.10121855392134993;-0.5403140040192174;0.01236014904865712
A;-13.7;-0.42951453472497025;0.15826182876415196;-0.5145444121221745;0.0703787150879771;-0.4787548832588948;-0.035487706366695626;-0.6185117148789541;-0.01778149074529356;-0.5047726355043833;-0.0025698569732170995;-0.6092583093410475;0.02542487809718086;-0.7452992737289641;-0.09865620409301723;-0.5416976320126636;0.013360290152556686
A;-13.6;-0.43249328671646037;0.16123987948425622;-0.5197495758134876;0.07416915807640301;-0.4824721527187039;-0.03315469316324293;-0.6222109298078919;-0.014560580656372224;-0.50451493042151;-0.00310232113584874;-0.6116029132486194;0.02619463088500318;-0.7471389507206263;-0.0960219616799396;-0.5432158276769599;0.014350929922042788
A;-13.5;-0.4356648652293478;0.16425695027266674;-0.5253058241590391;0.0780386086936069;-0.48637604159929193;-0.030775889303836124;-0.6261314476781257;-0.01125003261486679;-0.5042778710338931;-0.00371171759838429;-0.6141431681403455;0.027071376624710375;-0.7489479604821625;-0.09333602405894847;-0.5448515323716059;0.01531706692414403
A;-13.4;-0.4388619356694461;0.16727212801299274;-0.5310232908563322;0.0819123208525836;-0.4903630037216571;-0.028368959247551118;-0.6301560176862218;-0.007909095298916036;-0.5039933717365113;-0.00437929490912925;-0.6167620442974968;0.02799912341686106;-0.7506514039455414;-0.09064911287841504;-0.5465099166311926;0.016228645002049902
A;-13.3;-0.44192995669416657;0.17024445201859884;-0.5367238045141924;0.08571665964744302;-0.49434063189899113;-0.025950499475005273;-0.6341747946317797;-0.004596282185135969;-0.5035998452657884;-0.00509114298921709;-0.6193515181423583;0.028922247748031538;-0.7521815184057301;-0.08801074683325893;-0.5481056173748158;0.017055756724665194
A;-13.2;-0.4447633677735876;0.17318372787628;-0.5423099048810034;0.08945588245128278;-0.4982021961315857;-0.02354115667671497;-0.638137666271346;-0.0013084291857943242;-0.5030636587187125;-0.0057951321720626225;-0.6218417174936572;0.029851891406747377;-0.7534841522584861;-0.08542111386040485;-0.549566642761155;0.01781058012550396
A;-13.1;-0.4472338597029486;0.176110353658526;-0.547669555296773;0.09314749831528779;-0.5018088928789757;-0.02116577434914113;-0.641986660851229;0.001967874947694348;-0.5023409806892909;-0.006418492269246734;-0.6241467409182571;0.030811167933102013;-0.7544906360622372;-0.08287345879077446;-0.5507991152876333;0.018514132106677295
A;-13.0;-0.44931888902779704;0.17903707583644835;-0.5527857237172595;0.0968079063819074;-0.5051224775742424;-0.018835565599875537;-0.645722161698064;0.005245878693051154;-0.501437374683781;-0.006939807452241986;-0.6262562485141174;0.03181971991183197;-0.7551897417593487;-0.08035742211761399;-0.5517903059855271;0.019180279884476903
A;-12.9;-0.45100803987433125;0.18198268184573863;-0.5576565805254443;0.10046325201428274;-0.5081087092592513;-0.016561887109036277;-0.649354980240596;0.008546327281989896;-0.5003648638351441;-0.007335077081892294;-0.6281686793866568;0.03290497161720918;-0.7555755208209529;-0.0778561538353868;-0.5525334905201209;0.019828184313405828
A;-12.8;-0.4521021849687017;0.1849404035880058;-0.5620848141612464;0.10408530731978516;-0.510595892220846;-0.014369506563475909;-0.652765869366382;0.01184708768706244;-0.49903970884458726;-0.007536432238265611;-0.6297437189989292;0.03405222451132417;-0.7555467995678438;-0.07539394654957832;-0.5528911061342097;0.020455311500254147
A;-12.7;-0.452400229662838;0.1878917271043692;-0.5658634182351614;0.107628887009108;-0.5124230652387753;-0.012279930167467867;-0.6558263181930633;0.015112887437969569;-0.49737484779197416;-0.007490013486137315;-0.6308385423806415;0.03523217548295854;-0.7550036427414755;-0.07300580722031835;-0.5527284257668228;0.021048702201836633
A;-12.6;-0.4517146924512012;0.19084416991768194;-0.5688139371785086;0.111086839543451;-0.5134147922344914;-0.010322761706301975;-0.6584319232742661;0.01833648108261965;-0.49529602081025104;-0.007112236577356157;-0.631321678647037;0.03644589604035442;-0.7538501827391526;-0.07070217768051101;-0.5519109752286564;0.021619991455829712
A;-12.5;-0.4498571282312174;0.19380037413432571;-0.5707542016179996;0.11444493875128448;-0.5133995619087699;-0.008524736256409149;-0.6604733861217928;0.021505731377130743;-0.4927255320285342;-0.006326399650618875;-0.6310599165927888;0.03768876066166804;-0.7519898874812565;-0.06849803330544812;-0.5503037478752866;0.022175761988455278
A;-12.4;-0.44687460610093144;0.1967415169510689;-0.5717113225438748;0.11768103808995178;-0.5124332405432437;-0.006879260620328509;-0.6619684200136042;0.024603906647901574;-0.4896945416812466;-0.005179383451942243;-0.6300892818400214;0.038944370088890956;-0.7494547713848947;-0.06640485508306249;-0.54795568054349;0.022701444114116676
A;-12.3;-0.4429074160478148;0.19965193012988092;-0.5718016842081255;0.12078599354545183;-0.5106509448682157;-0.005372149972774132;-0.6629920103866;0.027623659252764554;-0.48628105295301793;-0.003749650136763094;-0.6285134548512836;0.04020382471649153;-0.746327210391704;-0.0644222261030789;-0.5449844897179386;0.02318600570485252
A;-12.2;-0.4379782236722498;0.2024897743561338;-0.5710172694011568;0.12370256066292384;-0.5081091944594833;-0.003984553307708971;-0.6635286322504159;0.03052479050173318;-0.48249010004275394;-0.0021096595558480757;-0.626346590138656;0.04142435883303275;-0.7426243001098758;-0.06258478700242698;-0.5414222489024407;0.02359027414414694
A;-12.1;-0.4321429802176784;0.2052098694871649;-0.5693792618606679;0.1263719846852034;-0.504896861302524;-0.002692848306688589;-0.6635800421742539;0.03326595752882433;-0.4783417838299293;-0.00034941341804550774;-0.62362638486732;0.04256089712588196;-0.7383815240586333;-0.060927047141857926;-0.5373268317036111;0.02387190351552171
A;-12.0;-0.4255223312659764;0.20782188356275277;-0.566998905802298;0.12881775183303645;-0.5011098938649416;-0.0014975591289969614;-0.6632228051801192;0.03586173042290941;-0.47391161247358315;0.001500010320754086;-0.6204426076835396;0.04362815505360107;-0.7336699043017862;-0.05942755269530675;-0.5327907627728035;0.02404657133506838
A;-11.9;-0.4182014718213436;0.21033868389479426;-0.5639562805110474;0.1310640534962113;-0.49681049999466076;-0.0004026491804989263;-0.6625123998642986;0.03832755377194452;-0.4692556998068138;0.003425875254199795;-0.6168583150131237;0.04464213719302279;-0.7285397988358113;-0.05806537296179126;-0.5278760310892991;0.02413265412887089
A;-11.8;-0.41037549118573313;0.21276866558083363;-0.5604309527360858;0.1331406048681858;-0.4921596413153493;0.0005971488132656688;-0.6615703683855507;0.04068132866260399;-0.46448891605431086;0.005367571500296542;-0.6130175198934102;0.045619811553656575;-0.7231049025539527;-0.056813438195508326;-0.5227344900161839;0.02414547727443317
A;-11.7;-0.40224266386851504;0.21512428437713105;-0.5566077597438133;0.1350827272431241;-0.48731793066371587;0.0015059100749015286;-0.6605215062821124;0.04294494394806403;-0.4597276394725247;0.007269713010430223;-0.609066090837695;0.046581954185512586;-0.7174800133463854;-0.055640646562105545;-0.5175175361869826;0.024104544883295276
A;-11.6;-0.39372250010302423;0.21735769658647008;-0.5523802590961839;0.13681365077494423;-0.482257494851722;0.002343456999852833;-0.6592754837434214;0.04506673270979533;-0.4549089132666877;0.00908978642521241;-0.6049365504218072;0.04747304816903952;-0.7116201699932629;-0.05459722617519169;-0.5121676843539351;0.023961633606199406
A;-11.5;-0.38467322039708574;0.21939865942448922;-0.5475726132245367;0.13822012328237054;-0.47691584573898727;0.0031369101840095226;-0.6576898823440613;0.04697013334274214;-0.4499285915942952;0.010774663696182074;-0.6005140357597849;0.04821179539803655;-0.7054466448952139;-0.05375990362775962;-0.5065860777420852;0.023644292859236415
A;-11.4;-0.3750072139847873;0.22122020636148143;-0.542083321329593;0.13925201910261276;-0.4712430983723186;0.003896237136790326;-0.6556794993252852;0.048622277171077144;-0.444723120012144;0.012317414166651552;-0.5957254750487033;0.048761735149131624;-0.6989082548636727;-0.053160188447793466;-0.5006982161794973;0.023126101365311236
A;-11.3;-0.3646072892443204;0.22279027597474865;-0.5357808899703125;0.13984901435534347;-0.46516814512101146;0.00463305437026218;-0.6531361757034846;0.04998380031658911;-0.43920874901189855;0.013714907560707701;-0.5904743886929591;0.04907942967450474;-0.6919362565203961;-0.05283710051117296;-0.4944055647703749;0.02237464000073519
A;-11.2;-0.3534752744997851;0.22405706433649009;-0.5286313078639573;0.13994060254244456;-0.4587328173643703;0.005369596803750376;-0.6500231220046802;0.05100353542159741;-0.4333740543165412;0.014890725060026533;-0.5847551585135644;0.04911069959923875;-0.6845384534633769;-0.05283794421444732;-0.48772601533817195;0.02134012773309024
A;-11.1;-0.3416774351397329;0.2249855839731998;-0.5206690665501519;0.13948636979268425;-0.45201991097374616;0.006122173308036771;-0.6463551100413278;0.05164964833180896;-0.42725077470869444;0.01577087225871132;-0.5786115405434895;0.048821536780017105;-0.6767603056276164;-0.053188688757722424;-0.48072533621836655;0.01999186725188906
A;-11.0;-0.32915177845323473;0.22550748328815562;-0.5117934727328688;0.1383856983792775;-0.44503029482123857;0.0069218354935278725;-0.6420406420901354;0.05185246586730141;-0.4207777377604396;0.01627825073967859;-0.5719855458571761;0.04813726269145757;-0.6685695666087632;-0.05395789924735883;-0.4733678457120618;0.018260390145531602
A;-10.9;-0.31586222879498305;0.2255611402367812;-0.5019309673489394;0.13655073130380035;-0.43778015023058625;0.00779592197064094;-0.6370101513960353;0.05154981893638766;-0.4139130587516888;0.016337768843845524;-0.5648392972940357;0.046991559588268395;-0.6599504698873888;-0.05520587160378909;-0.46563910266903896;0.016084287448768997
A;-10.8;-0.3019092538159409;0.2251882683740174;-0.4911912798085414;0.13404492271793433;-0.43032381788198837;0.008728971683764186;-0.6313370431560257;0.05078348603168514;-0.4067200198878025;0.01598176052146627;-0.5572422171961087;0.0454249554205397;-0.6509589834887679;-0.05688379770989993;-0.4575919688903909;0.013513203190884227
A;-10.7;-0.2873950766576856;0.2244551238788386;-0.4797007455012503;0.13096308158351277;-0.42269938819804764;0.009697480196708241;-0.6251051220621227;0.04961881914242294;-0.39926183273732896;0.015279755657234162;-0.5492633235514406;0.04350103190914467;-0.6416464451242136;-0.058919654012421496;-0.44926314442904314;0.010621475935459479
A;-10.6;-0.27253136747446316;0.22342830501905642;-0.4676824658441925;0.1274187808004168;-0.4150294994322188;0.01066940756146817;-0.6184830574355509;0.04812573435449963;-0.39168932470171214;0.014265667676589544;-0.5410608181597354;0.041293134394406295;-0.6321422286846499;-0.06123283992990025;-0.4408036491946792;0.007489837578409819
A;-10.5;-0.25755192600685284;0.22218944127111406;-0.4553883670476546;0.1235480290684201;-0.4074440938449735;0.011606733844264916;-0.611661658050445;0.04638948602619042;-0.38416953054179803;0.0129884367168831;-0.5328099580832184;0.0388903003089478;-0.6225874380669554;-0.06372671915987294;-0.43237596677525936;0.004215145716562674
A;-10.4;-0.2424536289860253;0.2207636412911036;-0.44282843877635525;0.11937781352399668;-0.39992229210025076;0.012509098451646494;-0.604626293545131;0.04443301963803403;-0.37667594906170976;0.011496267249940573;-0.5244907362218774;0.03630999080509856;-0.6129663099025304;-0.06637764429220372;-0.42393170759353893;0.0008237309724794528
A;-10.3;-0.2272177113753946;0.21916043360785853;-0.42998959719850127;0.11491395881229494;-0.39243907851708304;0.01338175455997348;-0.597345227491922;0.0422639476291824;-0.36916993298983325;0.0098215084139186;-0.5160700268086851;0.03355460302746138;-0.6032562243162225;-0.06917857616715306;-0.4154178822652419;-0.0026745375099972435
A;-10.2;-0.2118529173388195;0.21742932860970043;-0.41690702974003546;0.11021549490976401;-0.3849692458812024;0.014216605136025073;-0.5898211012765007;0.03992911130024979;-0.36163322183678925;0.00804241990425858;-0.507537430395276;0.030664451662094194;-0.5934435028930256;-0.07208103030412794;-0.40678022714779694;-0.00622845821393625
A;-10.1;-0.19635451318114594;0.2156152053417344;-0.4036016630806829;0.1053339492411487;-0.37747842665884335;0.015008368386277837;-0.5820443541359781;0.03747071520275114;-0.3540354503097092;0.006236418405563882;-0.49887049291580254;0.027674914234945724;-0.5835055988166724;-0.07504233815200045;-0.3979529932922148;-0.009792442037517723
A;-10.0;-0.18096328952869278;0.21376015296854867;-0.39030777329933564;0.10036117062887406;-0.37011922067350955;0.015727660668501287;-0.5742010746396105;0.034936939218870755;-0.34655299170645026;0.00439901225457362;-0.4902493623261135;0.024641937825185423;-0.5736016435254445;-0.07800513337910697;-0.3891393166456698;-0.013308432376177848
A;-9.9;-0.1660089055947731;0.21191794404223607;-0.37734422229382947;0.09541863455535715;-0.36310713479400203;0.016333104304798063;-0.5665520300992091;0.032390191427674964;-0.3394371288540068;0.0025116165600458373;-0.481928727828298;0.021639690966890335;-0.5639530518556279;-0.08089368785637951;-0.3806303290784676;-0.016701238594449386
A;-9.8;-0.15165551702871216;0.21010008423490767;-0.3648611857590902;0.09054872096942734;-0.356548467212642;0.016812885691802393;-0.5592116518094885;0.02984774790847311;-0.3327965609505039;0.0005559933035517162;-0.47402185755248816;0.018691212102981858;-0.5546691171049059;-0.08368710687023562;-0.37256665647708154;-0.01994876545458446
A;-9.7;-0.13808924317798965;0.20831557743389872;-0.3530267277313053;0.0857952517321916;-0.3505665564225646;0.017153411627513826;-0.5523118593199854;0.027325489218397614;-0.32675883715487064;-0.00149590654623033;-0.46666001006915714;0.015819861980816086;-0.5458764095701802;-0.08636563370074946;-0.36511529698150547;-0.02303014130250247
A;-9.6;-0.12555348436041847;0.20663567439076136;-0.34209410279922814;0.08128493322878239;-0.3453082689444251;0.017318235678250637;-0.5460496821680136;0.024899699621446558;-0.32150365948345083;-0.003617087597640456;-0.4600303003267614;0.013106120207475591;-0.5377278697043222;-0.08884078092251535;-0.358461616335358;-0.02585843201651361
A;-9.5;-0.11422285203674143;0.20512825939167012;-0.3322546259506538;0.07712812476875541;-0.340870688624225;0.017279791793730404;-0.540565420669008;0.022641390023030006;-0.3171516515831918;-0.005763950230130099;-0.45426288444758445;0.010621040927433434;-0.5303256986762941;-0.09103198045397143;-0.3527179174711783;-0.02835468250326212
A;-9.4;-0.10441416293363126;0.20386603583495866;-0.3238269337211088;0.07346863993354891;-0.33745139442985117;0.016991391945982315;-0.5361192806847646;0.020631243540711885;-0.31394742396593855;-0.007927792272674594;-0.449605505841177;0.008455293855988089;-0.5238795892060013;-0.09284539961830429;-0.3481521774187186;-0.030425883335758463
A;-9.3;-0.09641164792292845;0.20291981768397882;-0.31709995289109916;0.07044197221977466;-0.3352265196711661;0.016410832324518232;-0.532944630734991;0.018947234417257874;-0.3121085434254356;-0.01009442705449004;-0.44628022311084425;0.006694541049351521;-0.5185754585380762;-0.09419078201137587;-0.3449985686276307;-0.03198319663667526
A;-9.2;-0.09010754163926826;0.20226357763299152;-0.3119656692745716;0.0679985723841714;-0.33411291682379574;0.015567826402531182;-0.5309257777809684;0.017563667429027596;-0.3115097161327274;-0.0122453755150298;-0.4441725892439887;0.005305297235111972;-0.5143289768255297;-0.09510378364411576;-0.3431276301399091;-0.033060751906651475
A;-9.1;-0.08530948465183119;0.20183787347222903;-0.3082235687194572;0.06603592726267671;-0.3339725802859288;0.014509352827752231;-0.5298706267296627;0.016421054189756035;-0.31195303124021034;-0.014373702187623572;-0.44309375147112817;0.004219426657048331;-0.5110028570439695;-0.09566123142476712;-0.34234290688790026;-0.03373176526179211
A;-9.0;-0.08177799111655126;0.201614832679466;-0.30564821056535685;0.06447602218124615;-0.3346372815716103;0.013282348156450574;-0.5295549027948852;0.015487580132694134;-0.3132041232267406;-0.01643449849030265;-0.44282719639585455;0.003386511745555154;-0.5084143310160556;-0.09590638802263651;-0.3423728842816942;-0.0340411595265504
A;-8.9;-0.07921572293885415;0.2015530217328365;-0.30395604504253093;0.06321468181347889;-0.3359000510820014;0.011944092114137383;-0.5297035877335858;0.014716985547260641;-0.314978525696775;-0.018381616455432237;-0.4431072068476922;0.002739442007213988;-0.5063405537334518;-0.09590021412981997;-0.34289264631953564;-0.03405132399275956
A;-8.8;-0.07759935733263479;0.20161143217357047;-0.30310481649448917;0.062206809838781574;-0.33773592326032986;0.010511369964481432;-0.5302776801017064;0.014073667758542463;-0.3172341343490066;-0.020233391381216492;-0.44388913310979294;0.0022464406130238146;-0.5047744363763274;-0.09569193761054784;-0.3438893579308093;-0.033805837666499805
A;-8.7;-0.076955428967735;0.20176313182839412;-0.3031032333664241;0.06143339279610682;-0.34015495650770244;0.00899023146126865;-0.5312854798753808;0.01353703823895902;-0.31997683306783653;-0.02200952739764528;-0.44517447477642147;0.0018926100981211391;-0.5037450769022023;-0.09531261027947391;-0.34539872390553406;-0.03333089684611057
A;-8.6;-0.07718143864353788;0.20194064360312147;-0.30382596240918236;0.06080463416036874;-0.34307617510503796;0.007414923308564525;-0.5326145096833601;0.013044508578583525;-0.32309072928513416;-0.023731860953823514;-0.4468464388524378;0.0016174297610103139;-0.5031891645081554;-0.09484408422404034;-0.3473379663077534;-0.03270192313842468
A;-8.5;-0.07819081132189254;0.20207692791896648;-0.30516167211250433;0.06023525374378913;-0.34643024257467836;0.005816045356870525;-0.5341684278519416;0.012534637625642553;-0.32647748241226004;-0.025426983716293705;-0.4488032926523191;0.0013632269345507098;-0.5030578393811505;-0.0943670957844347;-0.3496451623012149;-0.03199282163033157
A;-8.4;-0.07977905419518372;0.20217811890516657;-0.30693206229837156;0.059693595679688016;-0.3500805019823714;0.00422482430064175;-0.535769434268806;0.012009342282213176;-0.3299521493943258;-0.02703868795893971;-0.45087758812247714;0.001110664515261206;-0.5031924782798187;-0.09388360373213711;-0.3520772264810166;-0.03121232381801775
A;-8.3;-0.08166642375477196;0.202263535981138;-0.30889977564372906;0.0591458250928909;-0.35384027872694457;0.0026819968213001033;-0.537176873993003;0.011480074168478183;-0.333263107273126;-0.02848214023329909;-0.4528448030009633;0.0008403748614869144;-0.5033690070839212;-0.09338302967245227;-0.3542950263837259;-0.030361104975354714
A;-8.2;-0.08376454254868371;0.2023499652865004;-0.31099340486706417;0.05859852760200912;-0.3576542869674686;0.0011947145854662722;-0.5383232762554675;0.010963104056300743;-0.3363412400188812;-0.029723055152880207;-0.45464099262806545;0.0005571025098163318;-0.5035254630663895;-0.09285142731071794;-0.3561896662820967;-0.02942932850050628
A;-8.1;-0.08597582704062745;0.2024627212477963;-0.31313738913828004;0.05806603865750404;-0.361462873790269;-0.00023118176940872814;-0.5391371463832018;0.01048241872067468;-0.339113916797249;-0.03071989436962408;-0.45619988268312817;0.0002710859490271389;-0.5035915338365573;-0.09226515426649406;-0.35763893214690157;-0.02839917371832179
A;-8.0;-0.08802349229546014;0.20258179876823945;-0.31507895044511347;0.05747231663028973;-0.36506786549694237;-0.0015424900868534763;-0.5393654168273248;0.010013648722203783;-0.34131313794932083;-0.031414558090422595;-0.45727844231025383;-6.498308464397695e-05;-0.5033450092547005;-0.0916567983892147;-0.3583277418914488;-0.027310493201274433
A;-7.9;-0.08967659233085357;0.20267221733735763;-0.316598524213596;0.056735309071237694;-0.36829791126357403;-0.0026896598121304294;-0.5387913181532022;0.00952035613413127;-0.342708010347736;-0.03177033629548642;-0.45766450830862837;-0.0005030418019451588;-0.5026030393715031;-0.09107425857369034;-0.35800367058092064;-0.026215011106255126
A;-7.8;-0.0905939782913201;0.2027295053327416;-0.31739245676928896;0.05578361672315513;-0.37091831609836934;-0.0036160931265785123;-0.537115769034628;0.00899064959859519;-0.34298788287160065;-0.031708834449565515;-0.457076535288655;-0.0010861036779648003;-0.5010929042670451;-0.09053345442586735;-0.35627817748178714;-0.025140994715441067
A;-7.7;-0.09045967048631187;0.20274445910097327;-0.31717743763380035;0.054546098542941124;-0.37270696395163405;-0.00426668840741673;-0.5340587156625274;0.008409317565035046;-0.3418599334856429;-0.031159270418240403;-0.45524925969145524;-0.0018571339976007906;-0.49855954339439634;-0.09005425665009259;-0.35279301697637777;-0.024119688101807313
A;-7.6;-0.08941571336156873;0.20269863031981217;-0.316067001636263;0.05304419286870754;-0.3737548642011683;-0.004666357851431435;-0.5297532834319671;0.007769214306205363;-0.3394646311811922;-0.030170626148038338;-0.45229789856185665;-0.00280424995284001;-0.4951377571091262;-0.08965389928485923;-0.347739344778093;-0.023160542608108514
A;-7.5;-0.08771699967477797;0.20258122440988302;-0.31427526055426735;0.05133460205848994;-0.37423662804171887;-0.004865592758688919;-0.5244431020244207;0.007074662841559665;-0.3360635358450468;-0.02882001289580849;-0.448442828795117;-0.003893720592526684;-0.4910624425841448;-0.0893369890067941;-0.34144726852809626;-0.02225733639601213
A;-7.4;-0.08560884488878884;0.20235199228941525;-0.3119994381158797;0.049435430687454485;-0.37429053071813545;-0.004891177681176195;-0.5183318772834733;0.006302334802227527;-0.3318581666184883;-0.027184043870966512;-0.4438579021365028;-0.005116545826561847;-0.4865353704837627;-0.08914014014703842;-0.334223674314142;-0.021434377945166894
A;-7.3;-0.08339992994772949;0.2019688256108152;-0.30949151175826817;0.047376992018803854;-0.3740982613073882;-0.004781206544266503;-0.5116812672658764;0.005429467480836614;-0.3271108957932176;-0.02535690947305458;-0.4387701845816574;-0.006456448431426232;-0.48181257097622066;-0.08910012614664442;-0.3264529867751502;-0.02071350764096458
A;-7.2;-0.08115489698273581;0.2014425339825543;-0.30680395232309454;0.045201309357096875;-0.3737164248031588;-0.00456474395765305;-0.5045820363549804;0.004474492600701652;-0.32193603465661536;-0.023368158604794687;-0.43326726063679555;-0.007886273049525272;-0.4769745804723282;-0.08919916910986192;-0.3182516265165152;-0.020078548407661323
A;-7.1;-0.07887150727203096;0.20078610823183674;-0.30393148116304314;0.04293792591805001;-0.3731517716041237;-0.004257374912964629;-0.49706238109275525;0.0034557468240574707;-0.3163813716034962;-0.02122853116453438;-0.42737964234597037;-0.009385809653185362;-0.4720392693021962;-0.08941722678900899;-0.3096547573427788;-0.019515349809842597
A;-7.0;-0.0767175177421402;0.200011737553484;-0.3010182466604441;0.040653378598085155;-0.3725416812450666;-0.003912837771216537;-0.4893166129521269;0.0023959945661022886;-0.310672709342505;-0.018997131969110903;-0.421290378982075;-0.010913363241829899;-0.46718606124249273;-0.08973421979469087;-0.300908018715095;-0.018999688905709355
A;-6.9;-0.07483945452570673;0.1991355680571294;-0.29819055991004895;0.038414553486742165;-0.3720097062055183;-0.0035825238680082805;-0.4815222482634649;0.0013211896612981278;-0.3050203588779805;-0.01672748282233627;-0.41516884730861214;-0.012426490191589146;-0.4625753480203043;-0.09012487671441693;-0.29223374224199006;-0.01850446438205644
A;-6.8;-0.07338269613405135;0.19811138277017104;-0.2955581200612363;0.03620838019584216;-0.3715979350066574;-0.003260051395760577;-0.4737720948845876;0.00019966374320379288;-0.2994967135543938;-0.01446432405904119;-0.4090841382181143;-0.013933577113401263;-0.4582908087109585;-0.09062862538378269;-0.28380811751821255;-0.01806580120668322
A;-6.7;-0.07254433336738586;0.19687066375226614;-0.29327144478336997;0.034004330372161995;-0.37136466412858216;-0.002932908796520195;-0.4661838803884901;-0.0010197798875708486;-0.2941844928869628;-0.012265352941547292;-0.4031194790366017;-0.01545499379633064;-0.45444459166146256;-0.09130959000704397;-0.27585696484876543;-0.017739460448330746
A;-6.6;-0.07232957251602556;0.19538548624485141;-0.29131989531715163;0.0317821016101254;-0.37126087921569173;-0.0025767017547311255;-0.45873416559255187;-0.0023554509100636167;-0.28904563153884943;-0.010139239762102292;-0.39724560606560466;-0.017001303972605797;-0.450999391873105;-0.09218505701669155;-0.2683985053825726;-0.01755120455497927
A;-6.5;-0.0727351334442945;0.1936228991267761;-0.2896845862432258;0.029512584988294677;-0.37122262615877144;-0.0021594688781743088;-0.45138330819151573;-0.0038306439423116956;-0.28401980108628866;-0.008091090789011268;-0.39141656276954695;-0.018588399769136288;-0.44790068222138135;-0.09327684729206442;-0.2614359053352544;-0.01753229440590154
A;-6.4;-0.07402018972266866;0.1915337619646138;-0.28857887187819564;0.027201715457318087;-0.37139843578547005;-0.0017098594151523372;-0.4443505068274174;-0.005478663765359215;-0.27931422462357425;-0.006204250186626403;-0.3858133939234323;-0.02021493714348299;-0.44536332332548234;-0.0946343417524611;-0.25529222665111284;-0.017716006993913958
A;-6.3;-0.07642107275770371;0.18908515964426886;-0.2882001423849747;0.02487090754032284;-0.37194381752228356;-0.0012682953472396008;-0.4378577487532809;-0.007318774814010887;-0.27515249467610037;-0.00456007504540068;-0.3806256623803286;-0.021869504482143753;-0.4436038766472823;-0.09629076927400249;-0.2502770532635843;-0.018120735029657276
A;-6.2;-0.08021977873735953;0.18621397733388534;-0.28878020365456436;0.02251139106211575;-0.37299433848068375;-0.0008487597731727803;-0.4321180821535613;-0.009396576802081391;-0.27171870831454115;-0.0032412148698908183;-0.376023704847106;-0.023559702080468092;-0.44282443408979333;-0.09830628310009093;-0.24672283230770908;-0.01879180061468233
A;-6.1;-0.08568414306349847;0.18286303555404437;-0.2905410253078422;0.02011797904685242;-0.37468964234073177;-0.00047134467891840615;-0.4273447545794937;-0.01175340040783901;-0.26920254495664864;-0.0023299333727742066;-0.3721795292075658;-0.02529099951271263;-0.4432290367745084;-0.1007370507938079;-0.24495201027101565;-0.019769796202149692
A;-6.0;-0.09262869943587404;0.1790697163415178;-0.2933204861680432;0.01771008246138539;-0.37692094582315416;-0.00013037124812154133;-0.4234203729443653;-0.014353559416817596;-0.2675163095061839;-0.0017968411349080782;-0.3690031197981227;-0.027045787906323504;-0.444676384769795;-0.10353099595633442;-0.24480283884242304;-0.021025920681474908
A;-5.9;-0.10072733100584585;0.17489529521606695;-0.29683689328945295;0.015306585756293067;-0.379482040029961;0.000200151268498594;-0.4201070605310431;-0.017142255571361176;-0.2664578716281456;-0.0015719151204400816;-0.3663051596435949;-0.02880382360974032;-0.4468935685483757;-0.10660415577229543;-0.24595100792548052;-0.022514618573869605
A;-5.8;-0.10975693368396122;0.17039771581219565;-0.30090466014496275;0.012942062334523108;-0.3823022186636056;0.0004940520172995733;-0.41731082830686894;-0.02006951673611468;-0.26598693540080465;-0.0016321352524837351;-0.36402090477688454;-0.030539444500079505;-0.44977703569810856;-0.10989585707874294;-0.24822053640258446;-0.024190954877386872
A;-5.7;-0.11943153849428789;0.16564888123462573;-0.3052855043794258;0.010655031559775985;-0.38527770672778505;0.000728099388059178;-0.4148928393199913;-0.0230740907319964;-0.2660258949458578;-0.0019389544557384397;-0.3620504120276511;-0.0322234334712288;-0.4531759492434606;-0.11332965428384334;-0.25136821619573446;-0.0259995765783696
A;-5.6;-0.12955300605858433;0.16067736878108985;-0.3098098432534364;0.008444392245443133;-0.388235058526857;0.0009433176979953828;-0.41267664973664786;-0.026129068898081087;-0.2663971579005171;-0.0024401968985792166;-0.36024670209271825;-0.03384891562510273;-0.45686544064662904;-0.11684996482857812;-0.2551793560161215;-0.02791903901679671
A;-5.5;-0.13999224135762844;0.15549793325873917;-0.31436995004794355;0.006303541790193101;-0.39104535846932276;0.0011734936492464598;-0.4105414889323651;-0.029220181307332282;-0.26696938858357644;-0.0031015997237995308;-0.3585062187564567;-0.035414024937289845;-0.4606795266647081;-0.12041944502204416;-0.2595123449670851;-0.029938306482799604
A;-5.4;-0.15043178331827534;0.15016171253397914;-0.31869097368882127;0.004236259380342666;-0.39345429426833345;0.0014762355121877846;-0.4082088686568115;-0.032300679000613286;-0.26747353908977356;-0.0038370028535856804;-0.3566005928943943;-0.0369059979476809;-0.46428338320247153;-0.12395217546318804;-0.2640185882805959;-0.03201946119343102
A;-5.3;-0.1605659988493784;0.14471679555845274;-0.32251020902401084;0.00224289426343649;-0.39520985387160934;0.001911213912312526;-0.405405149523574;-0.03532707539293245;-0.26763953521111894;-0.004560760197512614;-0.3543039570099902;-0.03831435515965165;-0.46734458398236267;-0.1273650668687818;-0.268356640432728;-0.03412688905634376
A;-5.2;-0.17032316228856548;0.13919831255743098;-0.3257864623676161;0.00035012704465131606;-0.3963853088522242;0.0024114682600648862;-0.40219582325625947;-0.03827448310932979;-0.2675759922785188;-0.005299900841855276;-0.3516791568289541;-0.03962375242639116;-0.46993925964092753;-0.13064222719908258;-0.27252493449779536;-0.03623334413345791
A;-5.1;-0.1796528919708713;0.13364786962349307;-0.32849932608551313;-0.0014019711016910463;-0.39712267263373136;0.0028763860706702005;-0.3987094879205495;-0.041113569683961515;-0.2674757730087558;-0.006103278428456704;-0.3488466090131226;-0.040812805452239864;-0.47222717917159684;-0.1337748229546305;-0.27657423742517295;-0.038306389901753946
A;-5.0;-0.18857739578660926;0.12807809956366611;-0.330695137325387;-0.0030028018301377912;-0.39752111569594906;0.003248515469307378;-0.3950592664506667;-0.04384036432059979;-0.2674642547245263;-0.007009363271235358;-0.34590118109263646;-0.041877248837280945;-0.47432036580790005;-0.13676740355275463;-0.2805790040649221;-0.0403351051269869
A;-4.9;-0.19715247369760114;0.12249876228823275;-0.3324528760921419;-0.004440678511652862;-0.3977208429086261;0.0034562232986505848;-0.3914010425143353;-0.04645471961783709;-0.26771094281563546;-0.008069831639216929;-0.34297312487778964;-0.042813638356435924;-0.4763812667830418;-0.13963424818649006;-0.28465633395924606;-0.04231066274087869
A;-4.8;-0.20517567385161772;0.11696975860172021;-0.33360402326049066;-0.005676649863837646;-0.3976936531821087;0.00345926893997639;-0.38767361274509593;-0.048905414519216706;-0.2682161575204063;-0.009271467621368323;-0.34002799629915703;-0.043594745301450466;-0.4783517809225719;-0.14232105391355088;-0.2886599135553869;-0.044187349929353914
A;-4.7;-0.21240629163357916;0.11155118737349135;-0.33394214780563036;-0.006678576053248619;-0.3973390406191015;0.0032492820771192754;-0.38374349765276783;-0.0511389471965904;-0.2688949016115014;-0.01057607518389414;-0.33696952460213314;-0.04419491378690754;-0.48008322787601543;-0.14475953567072164;-0.29237770830510534;-0.045919252334146954
A;-4.6;-0.21869619901733373;0.10630218126072499;-0.33335724154819424;-0.007404172993639158;-0.39672636075609446;0.002746776521672878;-0.3796429788679374;-0.05310942845089439;-0.26984905996618913;-0.01199868106323354;-0.33384048780725006;-0.044588644335533445;-0.4816338301086578;-0.14691608386274435;-0.29574026391474106;-0.047461702791190774
A;-4.5;-0.22388706948347448;0.1012811968017937;-0.3317258931025666;-0.007812520285918723;-0.3958954378965549;0.0018872396344411513;-0.3753748188031967;-0.05476956915389408;-0.2711461607449257;-0.013544094373379778;-0.3306591995608743;-0.04474998286710363;-0.48302503114629314;-0.14875105121112142;-0.2986563306963479;-0.04877032867264486
A;-4.4;-0.22797757365544147;0.09648175785965041;-0.3290675543509165;-0.007928120022637763;-0.39476294414792257;0.0007142420329246946;-0.37088676631103734;-0.05612767704498278;-0.27267804650230154;-0.01518695042732432;-0.3273705156635547;-0.04468991952805457;-0.4841405289780498;-0.15024742426016147;-0.30107590650011495;-0.04984790273551365
A;-4.3;-0.2310600351962897;0.09187362355407913;-0.32549450554989257;-0.007797242351093914;-0.3932740150059617;-0.0007198487197941361;-0.36617575283001;-0.05721619042559656;-0.27434844781166934;-0.016912008097093256;-0.3239492877485448;-0.044434523204703424;-0.48490114811023766;-0.15141223491966382;-0.30301791867620054;-0.05071498544839148
A;-4.2;-0.2330641314258619;0.08745109572269083;-0.3209399951940384;-0.007444836209864469;-0.39119727063575915;-0.0023031841028089417;-0.3610402716539234;-0.05803176636776275;-0.2758882130000906;-0.018646112295543027;-0.3202196082714863;-0.043988434088439554;-0.48500964425328963;-0.15219482305442078;-0.3043201925478609;-0.05137269704860703
A;-4.1;-0.23394127996147418;0.08319951117760471;-0.3153569923373327;-0.006905247475676113;-0.38828325955525766;-0.003907957414212682;-0.35526945320864467;-0.058578829037863045;-0.2770014315486167;-0.02031087331887349;-0.3159939482850218;-0.04336166898155991;-0.48414809453294705;-0.15254768120375584;-0.30482447380998146;-0.051828770384362066
A;-4.0;-0.23383386202823342;0.07909848845024392;-0.30891950300146664;-0.006212698565668084;-0.38464798350975116;-0.005558955904075624;-0.34900619314810655;-0.0588893662191845;-0.27776677774277303;-0.021935197330284595;-0.31136985516824467;-0.04257938866492683;-0.4824354720341528;-0.15250816165072845;-0.30464483320631786;-0.052098186689726766
A;-3.9;-0.23286625254743143;0.07513650228055102;-0.30178163499026045;-0.005390790116625688;-0.3804274859337573;-0.007294337492417036;-0.3423998164674904;-0.058986400592632826;-0.27828724513094727;-0.023551080520924472;-0.3064546955457548;-0.041660463307231055;-0.4800117953171936;-0.15211078581319093;-0.30389106680352995;-0.05218960725755206
A;-3.8;-0.23123833154167617;0.0712755217216694;-0.29417716293778273;-0.0044925697586277735;-0.3757355310539907;-0.00912538899236015;-0.3356121362102398;-0.05892109180430527;-0.27862940640307965;-0.02518981560212996;-0.3013538151476638;-0.04064289639065688;-0.4769989359618547;-0.15140724636769232;-0.30271336789738434;-0.05213140731534516
A;-3.7;-0.22916546098587176;0.06747701614503843;-0.2863554859068378;-0.003570579749355929;-0.3707140781669862;-0.011073229528205886;-0.32882913893362975;-0.05874598595894209;-0.27888575813432315;-0.026889296014540598;-0.29619214978608355;-0.039565404221061584;-0.47355120692075925;-0.15045583458313772;-0.301280741955388;-0.05195265857990794
A;-3.6;-0.22649693151642403;0.06375683170691637;-0.2781482666767925;-0.002621348467330087;-0.3650924801895412;-0.013014943609701568;-0.32177271858996725;-0.05842757142577426;-0.27875012957027856;-0.028554227149216516;-0.29074486093047547;-0.038411710051476256;-0.469315617559551;-0.14917908965163917;-0.2993576516738692;-0.05163874921133704
A;-3.5;-0.2229751263733375;0.06014210280478682;-0.2692663000104272;-0.0016314612847851961;-0.3584486785019205;-0.014771491704188122;-0.31400935794536533;-0.057911987266880516;-0.2777691415068082;-0.030044092058487237;-0.284666883388466;-0.037153065955239484;-0.4637582106651488;-0.14745768064111964;-0.29658076399419464;-0.051165610963733954
A;-3.4;-0.21850200614466075;0.05665258057949618;-0.25959945594142475;-0.000590556812205989;-0.35065225302513703;-0.0162769730896688;-0.30537876259236363;-0.05716755475520596;-0.2757723158439802;-0.03129781355891037;-0.2778302876144947;-0.03577383306077042;-0.4566866724172698;-0.14524198077574813;-0.29279452362230884;-0.05051701733400549
A;-3.3;-0.2129451519456289;0.05331371226009107;-0.24899596283287906;0.0005187445443732841;-0.3415377858823474;-0.01745282608370058;-0.2956771690195792;-0.05615327217098898;-0.27255480510592633;-0.03224181356250089;-0.27007529394018803;-0.034252202052580394;-0.4478652310932869;-0.14247018019373492;-0.28780645068660426;-0.049672572898261436
A;-3.2;-0.20619075708745083;0.05012563406444581;-0.23733698660715685;0.0016780498955011325;-0.3308110546985299;-0.018164817409723533;-0.2846377830089635;-0.05485832832194504;-0.2677912546110095;-0.032783514009825154;-0.2611797067255308;-0.03258816070753934;-0.4369287108591564;-0.13907675926003193;-0.281405705325243;-0.04863004255775305
A;-3.1;-0.19821416395189573;0.047076920681039525;-0.2246075579582616;0.0028562682880428625;-0.3182923847970258;-0.018321250448236626;-0.2721180641941876;-0.053292818397929764;-0.2612680295922134;-0.03286607778688566;-0.251016165641885;-0.030795387238398142;-0.4236524650342295;-0.1350319748451918;-0.2734839714211521;-0.047396825714524304
A;-3.0;-0.18881849915480942;0.04417765370857385;-0.21058049591015315;0.004050777250966142;-0.30357458488302225;-0.017740709684996858;-0.2577195689456948;-0.0514232130506338;-0.2525453321922768;-0.03235861828138287;-0.23926358442915596;-0.02885816872556557;-0.4075328956501991;-0.13023688762691954;-0.2637320130354439;-0.045963690612064845
A;-2.9;-0.1778367130719003;0.04143441022716754;-0.19506670714153884;0.0052539431582872;-0.28629513390041694;-0.016261558730320758;-0.24109400786700785;-0.04922465232712714;-0.24123062691702746;-0.031145525064316004;-0.22563982397587967;-0.026766771557453772;-0.388123688785476;-0.12460693817564916;-0.25188008024622555;-0.04432482870192711
A;-2.8;-0.16548412076916375;0.03883496554421484;-0.17831406571270314;0.006445146647858557;-0.2667882903742411;-0.013993286122266468;-0.2225516391560749;-0.04672916327826826;-0.227604649968284;-0.02930155657927891;-0.2103828326189907;-0.02454654966652292;-0.3657938044509308;-0.1182252756795732;-0.23815009031436496;-0.042492896634647614
A;-2.7;-0.15205251130718622;0.036367265325750964;-0.16064610229439324;0.007611219974847927;-0.24555256201719455;-0.01110605579039703;-0.2025389575350811;-0.04397176633895139;-0.2121024480343774;-0.026940843596197972;-0.1938418872686709;-0.02222316230299093;-0.34109909615209233;-0.11120982230507614;-0.22286810775733024;-0.04048242382486755
A;-2.6;-0.1378686231595374;0.03400511311850085;-0.14246435442502214;0.00870723947173424;-0.22308670313122025;-0.007788284495968689;-0.18156491860597868;-0.0410223029859722;-0.19518618311736002;-0.024199708678207088;-0.17640762026584156;-0.019848697221928724;-0.3146239374501869;-0.10369844592311495;-0.20640790258542197;-0.03831896337132257
A;-2.5;-0.1233161235563971;0.031718881590476755;-0.12423463995760642;0.009686046085086275;-0.1999899304181696;-0.0042671165904080155;-0.16023412858581754;-0.037959693581986365;-0.17741559401753726;-0.02124218629302632;-0.15854628818592076;-0.017480761426415192;-0.28707161461351305;-0.09585417912950511;-0.1892156637509803;-0.03603128132897382
A;-2.4;-0.10851056456954655;0.0295107509250645;-0.10604861611653149;0.010561613927905888;-0.1764780027728401;-0.0005949884968590169;-0.13868654574173434;-0.034776171105558085;-0.1589459995767033;-0.018095150761729073;-0.14037413613063787;-0.015114826424993844;-0.2586610902994968;-0.08772101664651366;-0.17140512073829228;-0.03362517819128996
A;-2.3;-0.09350423253209517;0.02738606761229523;-0.08792645565502344;0.01135062939683884;-0.15265858275875832;0.0032138529665814985;-0.11696157405652663;-0.03145598824295526;-0.13983470303702905;-0.01475841060012506;-0.12192968570851104;-0.01274142628821373;-0.22949009448664537;-0.07931889232400646;-0.15301871418102309;-0.031104864039307678
A;-2.2;-0.07850432302472576;0.025343047837924182;-0.07005709478041755;0.012067326027065839;-0.12891130626294878;0.0070505809079826065;-0.09534591502074541;-0.028001182229562716;-0.12038710489693383;-0.011298568205204695;-0.10344473917449104;-0.010361052942975846;-0.19996417931267096;-0.07072844482962726;-0.13427452573798426;-0.028477721754942564
A;-2.1;-0.06369432362655392;0.023382051550303373;-0.052596883280306095;0.012730971996439244;-0.10558214937790833;0.010819292597217256;-0.07408787323876975;-0.024407676515423304;-0.10087765081836864;-0.00777231605805806;-0.08512313715138653;-0.007969625241673661;-0.17045046420744647;-0.062021852419199774;-0.11536711133344646;-0.02575056575793333
A;-2.0;-0.049299206035091636;0.02147710832035088;-0.035852408375403044;0.01328911073638217;-0.08298931099762541;0.014378078826700502;-0.05356069387106466;-0.020749498608380712;-0.08163277321148055;-0.004286334541851566;-0.06725153965289099;-0.005623793632035579;-0.14135647527570505;-0.05330959504808597;-0.0965798110137932;-0.022952527291752567
A;-1.9;-0.035611576778248555;0.019590304190600705;-0.020240395848581727;0.013662642243507328;-0.061528221322731724;0.017542097627602615;-0.03426019284968884;-0.017133776622452856;-0.06307191254176914;-0.000984295661374368;-0.05020579608402542;-0.003404580539527302;-0.11319933888705958;-0.04473375332346663;-0.07827805583923109;-0.020120036850884482
A;-1.8;-0.022717113696971047;0.017707476501310104;-0.005881603660725432;0.013823673592714414;-0.04130409799104573;0.02025391009298083;-0.016324419665230572;-0.013599413307909813;-0.04531726422041249;0.002090709237111632;-0.03409674714477173;-0.001343345335390822;-0.0861358339707623;-0.03634966692984776;-0.06059381624490712;-0.01727775162533529
A;-1.7;-0.010693418308595604;0.01581236966094135;0.007102476818737102;0.013738368421130076;-0.02240105343528498;0.022456762231445104;0.00011219669375339691;-0.010192122597913134;-0.028482933864794724;0.004894033161106037;-0.019031920863270102;0.0005233471372232401;-0.0603091128657578;-0.028213216211937286;-0.043657624671345374;-0.014452546212659456
A;-1.6;0.00010350742401143975;0.013870233177519786;0.018263036318531434;0.013347894854386588;-0.005335030004368413;0.023953122530830484;0.014492374843357858;-0.007002333146902018;-0.01306148310309041;0.0072757953590238955;-0.005436084793170259;0.0021301874764505513;-0.036343282803131594;-0.020476435476959765;-0.0278644013001923;-0.011670475307901995
A;-1.5;0.00934164624119127;0.011852945052215347;0.02720793667585042;0.012612945079712112;0.009400164958603519;0.024570012044277334;0.026319419448876502;-0.004098086435589288;0.0004962712587914808;0.009107057879394809;0.006309549742839593;0.003429453966119489;-0.014818469335586393;-0.013274994575780852;-0.01356752256380922;-0.00895149593591249
A;-1.4;0.01666220347009162;0.009719389597629302;0.033452933881196856;0.011456564258941704;0.02129247837587389;0.024086700092972535;0.034989849340032464;-0.0015945459555846142;0.011661935798755962;0.010216326679986842;0.015744528788393275;0.004337289220803342;0.0036114038645580493;-0.006776210203560673;-0.0011970304472477267;-0.0063290489265090955
A;-1.3;0.021713470353225794;0.007430184676220364;0.03653422334789891;0.009808616397370962;0.029843114723344222;0.022297293957835862;0.03992695450334427;0.0004013824202546701;0.01993100347798027;0.010442746140319592;0.022429169542198757;0.0047766736464316395;0.01831637289936161;-0.0011393246304134408;0.008840188494023238;-0.003832753956475976
A;-1.2;0.02461119009997148;0.005001055829754186;0.03667107255792157;0.007721562517910563;0.035210856073310204;0.019293023427861655;0.041385051863519706;0.0019471366609442597;0.025487486349393684;0.009861091265811694;0.02653975440348244;0.004790543648652168;0.02949682797437614;0.0036781416827924573;0.016671664805467223;-0.0014654235861870646
A;-1.1;0.025638535403994744;0.002463363613522951;0.034301784965920845;0.005278345518180849;0.03779160456501529;0.015252014962658045;0.03987954607393185;0.00314045200138402;0.028732092901012862;0.008613319534176433;0.028444496554219434;0.004450597601988626;0.037625744952736184;0.007779086188540063;0.022588996182740573;0.0007740844767143429
A;-1.0;0.024902980503462402;-0.0001621753108702606;0.029685843691772185;0.002554759666541173;0.0377489513615723;0.010315558089271093;0.03572997401290401;0.0040691495456037785;0.029915165632487195;0.006810224319952596;0.028374322918863548;0.0038249780959525026;0.04295636073852016;0.011231084750655818;0.026792184708531508;0.0029001997753557163
A;-0.9;0.02257884891891848;-0.00284705970754473;0.02318071936921484;-0.0003554985425457957;0.03534032016130606;0.004667288011536819;0.02937428942777398;0.004844564040412891;0.029384437247900408;0.004595919835811202;0.02664784515272256;0.002999317677736535;0.04585993503247732;0.014130680235243887;0.029557390334717937;0.004931518173422411
A;-0.8;0.01888203815670586;-0.005576998907422137;0.015069554372725058;-0.0034158085248074954;0.030867682208225666;-0.0016013170425397405;0.021119671641651294;0.005497861025763662;0.02736721778186535;0.002038086943533912;0.02347466351953642;0.001996204989267447;0.04662629460730816;0.0165247110331066;0.03104094524196288;0.006855115380510313
A;-0.7;0.013958545829841462;-0.008347010454655468;0.005531584336464945;-0.006609525685111528;0.024542949764492228;-0.008437479732020137;0.011149281297237579;0.006032864060744103;0.02399432055540096;-0.0008293277005826383;0.018973924336713743;0.000818876750599884;0.04542759706033461;0.01843154979643824;0.031330134715275015;0.008656860847164438
A;-0.6;0.008159497476458277;-0.011127608845567849;-0.0049619074688198594;-0.009867952713817019;0.016848338912380356;-0.015681090583226087;-5.4470240860027275e-06;0.006524272837171274;0.019669256155356862;-0.0038811109021850143;0.013519193869900192;-0.0004784289520305407;0.042775617718112;0.019950182401018424;0.030707432975221494;0.010326306283367614
A;-0.5;0.0018377297348379784;-0.01389113378669471;-0.015948868589833687;-0.013128024286760187;0.0082712036318906;-0.023177259597264133;-0.011827364620224934;0.007038210764570785;0.01478599370456557;-0.006998357404115474;0.00747326012901528;-0.001847646587155083;0.0391751186809941;0.021175899865943038;0.029450149122546954;0.011852069310379854
A;-0.4;-0.005083396353220415;-0.01663853118322578;-0.027412127270458164;-0.016351928755097056;-0.001242761398689396;-0.030845805513677327;-0.024268766502214767;0.007610622766353714;0.009400382485096337;-0.010131302993344526;0.0008757292013612528;-0.0032542134511892584;0.034623901212936126;0.022122994375108895;0.02763844015978556;0.013259477322534963
A;-0.3;-0.012766171099731771;-0.019372244491095536;-0.03939657330334523;-0.01949268338648391;-0.011858705350446641;-0.03860377596605247;-0.03733513118884879;0.008292261203855844;0.003531311487004807;-0.013226844038087826;-0.00626661138438056;-0.004650152723268519;0.02904597691330313;0.022802290061920694;0.025334993534068317;0.014585643677213156
A;-0.2;-0.021319220193421806;-0.022105597561735024;-0.051986145392501903;-0.02254875063259476;-0.02366986307493235;-0.04642511725072218;-0.05111992048712111;0.009065496816228702;-0.0028753237073484428;-0.016286301407008708;-0.014021187751943387;-0.006040604640720204;0.02232717902522552;0.023190816829174565;0.02254286795308058;0.015846678454616736
A;-0.1;-0.0309000911474282;-0.024856070371252592;-0.06532113642657933;-0.02552431075957795;-0.03682862116091279;-0.05429401621045926;-0.06577667293793077;0.00990550253143141;-0.009915184186744419;-0.019321435707668755;-0.022496550484781608;-0.007434704349918775;0.014294182457751603;0.023255759180118574;0.019242873853089648;0.017064105992361966
A;0.0;-0.041443890555465046;-0.02760403881120066;-0.07917486840884003;-0.028337539698132908;-0.05122996892027665;-0.062074887570861215;-0.08100941962900965;0.010911689952792791;-0.017361141728161833;-0.022223481248405896;-0.0314745607455702;-0.008751948513702423;0.005168174073094001;0.023067417083514563;0.015612144429064223;0.018258594558621333
A;0.1;-0.052789179052784796;-0.03032425949381068;-0.09322955416601086;-0.030904475712264734;-0.06665261080784912;-0.06962601737757712;-0.09643284135936447;0.012184845882722506;-0.024927338198476257;-0.02487608881301817;-0.04067764760219639;-0.009912830761042102;-0.004730579006118951;0.022709520912827408;0.011855561567353234;0.019439006655038504
A;0.2;-0.06497439426598905;-0.03300472591105574;-0.10736525847869594;-0.0331503317913171;-0.08310319011371092;-0.07681229253998456;-0.11185089321971642;0.013817709569956982;-0.032440739531836016;-0.027178199220419863;-0.049950480391976804;-0.010838049665998994;-0.01527422414307722;0.0222431091706774;0.008140491796989835;0.020647544839955678
A;0.3;-0.07800302106977686;-0.035630597856228796;-0.12142961064625624;-0.03499856871226292;-0.10055427187205268;-0.0835036073015143;-0.12703725035549507;0.0159058138616599;-0.03971502694562368;-0.02902880761660498;-0.05911866560271761;-0.011447026189650877;-0.02630494434131503;0.021733230625847533;0.004633749036603518;0.021921411104884214
A;0.4;-0.09172464602476893;-0.0382094739693315;-0.13532820118024613;-0.03647457333502491;-0.11878465723966425;-0.08970189221143787;-0.14194532264417958;0.018387729619714577;-0.04672340945022846;-0.030451430220161058;-0.06816636604878834;-0.011782726953430966;-0.03773559694213535;0.02116695308101324;0.0013611045244452669;0.02323797654315385
A;0.5;-0.10601097843786089;-0.040762868485239245;-0.149066850750037;-0.03764590761356956;-0.13758360215005183;-0.09545367355988077;-0.15666508329603346;0.021140560455926938;-0.05353163762739843;-0.031518236764447316;-0.07717905825630833;-0.01193348969902086;-0.0495696298396604;0.020497470173158838;-0.001702094946306687;0.0245718450051422
A;0.6;-0.12055543107949429;-0.04328269975750132;-0.16238792009143754;-0.03852069645386802;-0.1565875807892727;-0.10078004525514217;-0.17099234499439842;0.02412860752117041;-0.06004505982878516;-0.032245420590609974;-0.08604126887978136;-0.011927742248987627;-0.061581516229550104;0.019731836891563326;-0.004536056777075359;0.02587472224155274
A;0.7;-0.1350255607491455;-0.045763584369573174;-0.1750380932108424;-0.039121108643311864;-0.17540105627884994;-0.10571999461217274;-0.18474359115334593;0.02729490394824552;-0.06618787503499046;-0.03266596288420498;-0.09465618093924988;-0.011810683518409526;-0.073549733236427;0.018867765036687523;-0.00714071784063286;0.027088228804816872
A;0.8;-0.14946745361054958;-0.04823425113802848;-0.18716931466439757;-0.03950932105820382;-0.1939939506666688;-0.1102889336467987;-0.19811116016129837;0.03053537581856869;-0.07205538405533574;-0.032835962596297286;-0.10316010427541844;-0.011649039603395472;-0.08557497241663636;0.017867441409895157;-0.00949903575734723;0.028243588246090745
A;0.9;-0.1639545286549362;-0.050718919326525835;-0.1989296078430023;-0.03973084634804902;-0.2123783033078528;-0.11448980973837042;-0.2112616358602759;0.03377469839399083;-0.07772464620733466;-0.03279453643719421;-0.11166576876153655;-0.011486709327049205;-0.09775015531521447;0.01670686654940834;-0.011575787366412627;0.029388048172618753
A;1.0;-0.1785134773276802;-0.05325600174819378;-0.21051393023154663;-0.03988109875747359;-0.2304850356391661;-0.11836491162021456;-0.22446689972022327;0.03685586966054455;-0.08334330914660715;-0.03263274947354411;-0.1203718002023626;-0.011431374649784942;-0.11021736754531641;0.015322182003985496;-0.013400370635416436;0.030525500306153752
A;1.1;-0.19320053448710173;-0.05588540222847982;-0.2221478255944529;-0.04005693328363158;-0.2482779856830577;-0.12195735886009818;-0.23802295651361227;0.039623053586756996;-0.08907073120527542;-0.0324427607936828;-0.1294904539516173;-0.011588512389399952;-0.12313922504528119;0.013649943598805336;-0.015004112714956719;0.03166783350959257
A;1.2;-0.2076882897607808;-0.05857646925887394;-0.23346994008593924;-0.04021198535561954;-0.26543311046771567;-0.1252788674009917;-0.2515693698140522;0.04213469956444715;-0.09473662778979897;-0.03219658847618323;-0.1387894050697014;-0.011915891374431276;-0.13619613048980295;0.011744487162867578;-0.01634473610650211;0.03278861117126475
A;1.3;-0.2214962371046667;-0.06127903550067604;-0.24392441616949956;-0.040266642892823334;-0.28149048913481334;-0.12833710298977596;-0.2645493611873224;0.04449422057907171;-0.10007445741984888;-0.031839660946729076;-0.1479084119802332;-0.012343472979091885;-0.14891422189993975;0.009686805423080536;-0.017382406322733246;0.033820716621889346
A;1.4;-0.23444748987821384;-0.06396879253059407;-0.25328594572699625;-0.040173706432341305;-0.29628693912666737;-0.1311303188901638;-0.27669866280250766;0.046775020626088626;-0.10494944918424576;-0.0313366923030749;-0.15666494115743834;-0.012810997775390298;-0.16106119128484941;0.007538464343433304;-0.018060396358022146;0.03478251803993615
A;1.5;-0.24633542072983872;-0.06661358936609219;-0.26127668525320313;-0.03986979925284473;-0.30964510451515803;-0.13365532860791784;-0.2876893237057745;0.04907694037805932;-0.10919626249816883;-0.03063948533156413;-0.16483201695463734;-0.013239496257136274;-0.17236043765341247;0.005374759814572805;-0.018309060456392245;0.03569772007475702
A;1.6;-0.25677187464039886;-0.06919364895350544;-0.267539416578245;-0.03934601572058671;-0.3211363583854778;-0.13592879145762726;-0.29722062647020664;0.05138821457230591;-0.11267260250797051;-0.029750312747258256;-0.1722289835437607;-0.013644102203926423;-0.18250855931661913;0.0032176109337864744;-0.01817088773585418;0.03644502676371619
A;1.7;-0.26547309728323665;-0.07170643293576706;-0.2718663783135913;-0.0386269682572733;-0.3304111369211231;-0.13796784941756624;-0.305152362571226;0.05364798933791537;-0.11531053826167259;-0.028696306811521133;-0.178781191147789;-0.014073172489267982;-0.19131868838550758;0.0010634089507153277;-0.017718108632870155;0.03689999247493958
A;1.8;-0.2719580555765839;-0.07411136150062703;-0.2737601991534646;-0.037665485085035755;-0.3369967209501237;-0.1398027462612097;-0.3110238741168887;0.05590829306820577;-0.11690432956919761;-0.027456119547001556;-0.18420028753095252;-0.014497968235635206;-0.19837850739848317;-0.001035795396020056;-0.016941172145195083;0.03698034849078624
A;1.9;-0.27578219681111094;-0.07637481001511226;-0.2727762521351753;-0.03642769953965885;-0.34044195921954223;-0.14145704594970976;-0.3144338876830304;0.058199633691412345;-0.11727103420732643;-0.026015638526430962;-0.18823685350627262;-0.014905195319122377;-0.20331704741664414;-0.0030385798488508087;-0.015836540873586102;0.0365981282251866
A;2.0;-0.27721658597493626;-0.07852809523929682;-0.2692584259704427;-0.03496425467724862;-0.3409737160598789;-0.14292324709572135;-0.3156820202151849;0.06046728931855494;-0.1165324367354943;-0.02440749375657969;-0.1910677660318525;-0.01531449387163697;-0.2063291710750308;-0.004951774316072743;-0.014408180500492307;0.035819418799821534
A;2.1;-0.276722026243303;-0.08061031029596766;-0.26373170033187154;-0.03332745530099235;-0.3390345600109388;-0.14419643272624416;-0.31520333242959353;0.062674052190971;-0.11487736345372213;-0.02266507051780753;-0.19294539513135867;-0.015724150558094507;-0.207736578605223;-0.00677809596897383;-0.012602389216677778;0.03481566523598456
A;2.2;-0.27468950169569695;-0.08268378495568918;-0.2567322082210364;-0.03162782410570042;-0.3348886941003153;-0.14523088117244676;-0.3135324557676018;0.06466006823604076;-0.11250961042993435;-0.020851381085344123;-0.19420452967960777;-0.0162309754784129;-0.2078896783018962;-0.008574762204536235;-0.010456598641056303;0.03360085161365145
A;2.3;-0.27161364567855983;-0.08482018021767779;-0.24891165046727437;-0.029988804915568323;-0.32889982792561234;-0.14597759374107522;-0.31130759316988765;0.06625254980697992;-0.10967887276156141;-0.01903702391475459;-0.19524316712872203;-0.016937321118629;-0.20722255506057774;-0.010406635890015004;-0.008031269987801792;0.03219501166528804
A;2.4;-0.2677140688551374;-0.087016302596167;-0.2404764639536907;-0.0283926082162953;-0.3213673332683378;-0.14647304738213762;-0.3086338610461832;0.06752540426752152;-0.10645636373379563;-0.017220105066561686;-0.19610064636885394;-0.017770409233106577;-0.2058316641257507;-0.01222954949193511;-0.0051046086961576975;0.030890138924807076
A;2.5;-0.2630985557522729;-0.08925885810331469;-0.2315094332496157;-0.026808692046706106;-0.3124847809735982;-0.14675409220691193;-0.3055111432916089;0.068563429873719;-0.1028666638159752;-0.015390392742084202;-0.19675270065119577;-0.01865570559951557;-0.20373072608086673;-0.013994970727369882;-0.0014053878903723671;0.029985294000439033
A;2.6;-0.2581686782235506;-0.0915560738238792;-0.22240535468543055;-0.025231058927371208;-0.30274394623909107;-0.14686206743666386;-0.3021934205835919;0.06944135731413681;-0.09905113200568216;-0.013554181403058863;-0.19732536024336955;-0.019510620992511107;-0.20114221422858947;-0.01565917195452915;0.003128710021313097;0.029707489844544632
A;2.7;-0.2533008270190171;-0.09391014258404962;-0.2135213457126266;-0.023643223846313788;-0.29262895505028297;-0.14684375044267117;-0.2988948877330433;0.07025106437831585;-0.09513883484787478;-0.011712338771297404;-0.19791858410951946;-0.020241851753019624;-0.1982655558239772;-0.017172748162550988;0.00860151273424492;0.03031637575094681
A;2.8;-0.2486678075909161;-0.09637624041617876;-0.20518646553241737;-0.022159664646004273;-0.2821485182359291;-0.1466237453732342;-0.2960209896157844;0.07079386640347884;-0.0912588918248467;-0.009922298044724442;-0.19879885838919442;-0.02099257316435299;-0.19533323997904084;-0.01861511432285834;0.01503891867881535;0.03176868544379019
A;2.9;-0.24446655340329393;-0.09903475682140073;-0.19782089293329452;-0.020948231756180213;-0.27124228894608216;-0.1460888695174134;-0.29412143504899113;0.07076874872865524;-0.08757604963731325;-0.008267015395454713;-0.20033596684674126;-0.02198304240117288;-0.19265105402768246;-0.020109274926445764;0.022263921221052918;0.033813205129492374
A;3.0;-0.24069463406432678;-0.10190772809472737;-0.19151511298867785;-0.020067098238009784;-0.25982796438095246;-0.1451950579463226;-0.2933582835234221;0.07006517331764961;-0.08413888381046952;-0.006776098176585421;-0.20263977856848747;-0.023301493101275383;-0.19029627895385826;-0.021702589227656333;0.03055378444734913;0.03659556744892001
A;3.1;-0.23731366405838195;-0.10502048002053854;-0.18633736405861168;-0.019584766392053865;-0.24776413739654757;-0.1438858070818032;-0.29389680673687835;0.06854638550685355;-0.08098991742316919;-0.005482897386528407;-0.20582733490331417;-0.025059355178449927;-0.1883400126443977;-0.023455586385599858;0.0401973321373843;0.040240925192415844
A;3.2;-0.23471710897392306;-0.10844391363480987;-0.18285346123188262;-0.01963563030858939;-0.23528444060419407;-0.1421036659866104;-0.2963210294004366;0.06601113095617439;-0.07834127200156527;-0.004461081725322558;-0.21026959172699478;-0.02738659630999063;-0.18715424272882153;-0.02544306475451208;0.050546369791224066;0.04426979678384502
A;3.3;-0.23332504145789112;-0.11223198026213499;-0.18160752523514834;-0.0203164170875878;-0.22272654533484992;-0.13982831550525443;-0.3011395539124928;0.06233882387424927;-0.07639727118084672;-0.003769010113674476;-0.21627900937645705;-0.030349540891341675;-0.18708416396332517;-0.027704977502367;0.060900372665528835;0.04822367351753787
A;3.4;-0.23348496236131133;-0.11647099329009691;-0.18316262211926748;-0.021798212207689183;-0.21020355629607224;-0.13695790099426297;-0.3090014324246608;0.05724345582827617;-0.07537325350597612;-0.0034929349591772407;-0.22428106944524107;-0.03414946787489015;-0.18852880154316587;-0.030358951100680542;0.07074757437624957;0.05164980752802695
A;3.5;-0.23555389711063945;-0.1212401786599262;-0.18807217362354312;-0.02423706119978597;-0.1978704874568855;-0.13340999341034898;-0.32052122906403735;0.05047299311684483;-0.07548070631665738;-0.0037141372604461154;-0.23467523011924563;-0.038960138391861854;-0.19187210018441103;-0.03350682519166526;0.07945978793627617;0.0540348938611217
A;3.6;-0.2394498692099516;-0.12648141403757318;-0.19614500226709897;-0.0275290441378111;-0.18587293574801222;-0.12927758567246883;-0.33542009006626383;0.04223347420371404;-0.0766746965276246;-0.004391745982450068;-0.2472594108105648;-0.044634505313123185;-0.19697826633744953;-0.03706761742276399;0.08740700207900698;0.055770119336765234
A;3.7;-0.24489945592088347;-0.13209931691062504;-0.20692075698434742;-0.03150467408724911;-0.17426078576880855;-0.12468018297555616;-0.35314849920151126;0.032830262302868896;-0.07881962572188783;-0.005449706292328216;-0.2616572490414848;-0.05096499086140227;-0.2035459530891499;-0.04092752180426373;0.09551158418246875;0.05765885112004909
A;3.8;-0.2519027951062398;-0.13801218293530404;-0.22022275586280582;-0.03600621299267637;-0.16338292096449258;-0.11979422171511267;-0.37332588904633823;0.022602428903380378;-0.08186912006449454;-0.006832666025721856;-0.2775830012572573;-0.05769062372133327;-0.21139769928882046;-0.044937224110463525;0.10352188616368352;0.05975072434147055
A;3.9;-0.26039971663550254;-0.14411851346857407;-0.23576904423568834;-0.040838391525209516;-0.15359086146836454;-0.11482176331748573;-0.3954446219155887;0.011955451714602106;-0.08574099621957032;-0.008467640415636524;-0.2946654382755467;-0.06450407421561;-0.22028388305295898;-0.0489215233154674;0.11126481297318591;0.06217645943807515
A;4.0;-0.27012119887978514;-0.15036873122888927;-0.2532102918739607;-0.04592809417868349;-0.14475544574047738;-0.10977847012285302;-0.41919517792764704;0.0009910608233694163;-0.0903415531388525;-0.01031358530616533;-0.31270674853412395;-0.07135954794346588;-0.23003187412071746;-0.052864200248086135;0.11992503829182244;0.06579132016279221
A;4.1;-0.2808636789358854;-0.15673380631621026;-0.27230629148209484;-0.05124151576350933;-0.1367490187564906;-0.10465689455765403;-0.44439591704622305;-0.010256993980497064;-0.09561291290838803;-0.012348348219789251;-0.33159603640909907;-0.0782580715216401;-0.24054252813865507;-0.0567754700852241;0.1304778074407693;0.07127127727300131
A;4.2;-0.2922165612356977;-0.16312991721949643;-0.2924937604050397;-0.05664260448454517;-0.1293977445725858;-0.09950255506238115;-0.470510988439762;-0.021585703367555276;-0.10139214415330233;-0.014498664943459083;-0.3509866146909877;-0.0850891962604603;-0.25151200758751013;-0.0606045425913706;0.14428424851672084;0.07961513953484811
A;4.3;-0.3037571838371722;-0.169477802378859;-0.3132070955041586;-0.062005724135281604;-0.12249378982415582;-0.09434765943450873;-0.497020320960206;-0.032816332986443264;-0.107515047423;-0.016694266721959394;-0.37054584836232074;-0.09176263081584235;-0.26264303101926334;-0.06431292894377094;0.16274509770710122;0.09182893815385906
A;4.4;-0.3156995558273312;-0.1757335132847082;-0.33455165045192103;-0.06724051330585912;-0.11651015699322897;-0.08936518501763224;-0.5237987190464652;-0.04370056216304086;-0.11402199846966354;-0.018919903953001693;-0.3901538941761258;-0.0980655051154562;-0.27391288219280874;-0.06777537996936722;0.18444321988468904;0.10710635980033345
A;4.5;-0.32841415612524827;-0.1818481947986612;-0.35676647095157765;-0.0722365746572109;-0.11214146937826985;-0.08479144141884287;-0.5507527085512196;-0.05391351637627739;-0.12099411710923835;-0.021163099916726047;-0.4096943166206337;-0.10370890575200331;-0.28533474219501365;-0.07081871547061258;0.2069944292539425;0.12402733728416404
A;4.6;-0.34209756380364986;-0.18781125487211092;-0.3800131574831287;-0.07697449558695357;-0.10970335124971431;-0.08071915265201568;-0.5779118629316127;-0.0633603043110762;-0.12848916993487602;-0.02343256663100668;-0.42916634730778114;-0.10860206260570315;-0.29696304701948506;-0.07339070609447695;0.22932394431873693;0.14192647401829728
A;4.7;-0.3570132746567358;-0.193618323363153;-0.404528121545801;-0.08144369480108438;-0.10957220793955269;-0.07725130204086916;-0.605356650604417;-0.07194919241176123;-0.13658665585366947;-0.025744644383361326;-0.4485993098268706;-0.11264927812540826;-0.3088852933892303;-0.07543460666051338;0.25004710495725835;0.1599301188652653
A;4.8;-0.37323404843114094;-0.199186780116289;-0.43019766823765426;-0.08548001278673212;-0.1121909429902308;-0.07458977853702287;-0.6327344053229167;-0.07931376083386432;-0.14526310706172652;-0.028046109998949298;-0.467720873964554;-0.11556402779803854;-0.32095513820908117;-0.07678745380431895;0.26739271886778315;0.17697384627196477
A;4.9;-0.39068382822820613;-0.20443056249357472;-0.45676119866094744;-0.0889207169776105;-0.11782311938143764;-0.07289021776544313;-0.659626050327498;-0.08512577051099957;-0.15445116022991812;-0.03027360540558277;-0.4862282597647889;-0.11710651902716407;-0.33297737503050406;-0.07731800541880585;0.28015860997766495;0.19232960185199666
A;5.0;-0.4095871577618784;-0.20927298925499382;-0.4842538772889311;-0.09160455811880563;-0.12708203842464183;-0.07240164937180893;-0.6857431253982762;-0.08898723427370925;-0.1641655981159813;-0.0323858711658751;-0.5038806532918789;-0.11694665200480436;-0.3448498129030213;-0.07683244799710653;0.285972376025156;0.20457091014277395
A;5.1;-0.43011269438154276;-0.21363701112253963;-0.5126586101028661;-0.09337219970741195;-0.14050852826545768;-0.07335047264096062;-0.7107816687211805;-0.09051918535400993;-0.17440717342410217;-0.034337662547618386;-0.5204323188388198;-0.11477669559301429;-0.3564588624955016;-0.07515231861368665;0.2825863098083685;0.21232366572482242
A;5.2;-0.45199687594827154;-0.21753202706853525;-0.5417460801482061;-0.09427200605529773;-0.15773779468746962;-0.0756196239807343;-0.7347063220808163;-0.08987805973163887;-0.1851140173956063;-0.036128417963390724;-0.535895563286906;-0.11075405382816328;-0.36777764587890616;-0.07238460216838138;0.2709706106797176;0.21608324415046543
A;5.3;-0.47493251778321444;-0.22100228144239242;-0.5713192535634803;-0.09442804220810519;-0.17820759341374437;-0.07900637043305103;-0.757620353344203;-0.0873861564645857;-0.19622870218792166;-0.03778246072575531;-0.5503949775066976;-0.1051679450843297;-0.3788386349244073;-0.06871364847107575;0.25293597637897136;0.21685144162052783
A;5.4;-0.4984206171463219;-0.22404865235637228;-0.600918735706002;-0.09388243117980988;-0.20127718223865543;-0.08330899286720062;-0.7794026485901302;-0.08325179129634819;-0.20763237958973235;-0.03927717002478204;-0.5639042513826134;-0.09824954467055402;-0.38955996014128225;-0.06429975426879952;0.22991806088722466;0.21531694097797605
A;5.5;-0.5218958862074379;-0.22668414288680783;-0.6300490186190997;-0.09270636995144965;-0.22617066563394506;-0.08827585422586814;-0.7999661273767629;-0.07775975974968397;-0.21919464886509932;-0.040595643348288135;-0.5764314396930192;-0.09029681636082643;-0.3998689232945898;-0.059344162707986925;0.2037807399401892;0.21240911494697734
A;5.6;-0.5453282276783575;-0.22894599525951875;-0.6587451474696708;-0.09099093383037893;-0.25270556463327676;-0.09383356275032462;-0.8194378606441424;-0.07109265723291625;-0.2309120295657685;-0.04177081798532534;-0.5880896511041884;-0.0814539161000809;-0.4098266863631679;-0.053934467276545384;0.17530672325276697;0.20858575517108857
A;5.7;-0.568751180996208;-0.23085916801148;-0.6870749255811797;-0.08879633294394385;-0.2808272767551392;-0.09995575527015088;-0.8379103346668346;-0.06335540031759734;-0.24279087585392478;-0.04282819218203304;-0.5989576979733116;-0.07179836748447865;-0.41948499252368876;-0.048117394011142345;0.1447696688618043;0.20399985247247088
A;5.8;-0.5920614844605536;-0.23248773012486268;-0.7150586238389165;-0.08627461213261611;-0.31015326633899676;-0.10649117542940978;-0.8555998530647768;-0.05487251362220036;-0.2548182887994601;-0.043818526265183344;-0.6092261787317801;-0.06159001909815487;-0.4289358804563701;-0.04204921281865914;0.11359273106199108;0.19946533105975917
A;5.9;-0.6151937206591578;-0.23389722728643836;-0.742753325188267;-0.08357777549130407;-0.3403413799666417;-0.11330092242089229;-0.8727366479145466;-0.045959068949123605;-0.2669895403342126;-0.04479517295460411;-0.6190924655175252;-0.05107643202940526;-0.4382800631144246;-0.03587715162984573;0.08311339897160153;0.19575680096431292
A;6.0;-0.6376713510377181;-0.23505414230523947;-0.7696512201682104;-0.08066786021929762;-0.37090109275101923;-0.12024492833124079;-0.8890744812468947;-0.036663804587885096;-0.27917897682104087;-0.045703299423863086;-0.6284292275856531;-0.040369680209376035;-0.44738675563965824;-0.02969304395822725;0.053608710190668596;0.19278727839450216
A;6.1;-0.6588344777744535;-0.2359028707763784;-0.7950340017639075;-0.07747014227654248;-0.4011928220708407;-0.12714640969839763;-0.9042379612080866;-0.027011237625854;-0.29121232403531483;-0.04645919409688659;-0.637028946317832;-0.02959025326334519;-0.45605513745122384;-0.0236025521652099;0.02526306403072187;0.19031532845568044
A;6.2;-0.6784194892822537;-0.23640789047406408;-0.8185813513793407;-0.0739271888891313;-0.43100065731592085;-0.13395722245282027;-0.9180152840463593;-0.016955212024329924;-0.30300765189184187;-0.04701648549193305;-0.6447686837677908;-0.018748944130244638;-0.46418394905668947;-0.01762869585240523;-0.0021556410871639287;0.18804282583678056
A;6.3;-0.6961335982566563;-0.23652341165948076;-0.8399267531231338;-0.06996020084676946;-0.4601081366239379;-0.1406336091787468;-0.930149198216772;-0.006415927636436614;-0.3144730847956003;-0.047317698939957964;-0.6514928955414865;-0.007836167642736314;-0.47165005651519465;-0.011784087446367941;-0.029034365699629916;0.18555870039670186
A;6.4;-0.7114059642336796;-0.23624383047810582;-0.8585231437820928;-0.06559716033264884;-0.48780331433500645;-0.14695694428792905;-0.9404656358619325;0.004404262370154122;-0.32546280802393657;-0.04732810863823289;-0.6571399038667058;0.0029132584971076625;-0.47833642653168873;-0.00623267736766131;-0.05466078590058032;0.18296054743004664
A;6.5;-0.7237886573293997;-0.2355861701749724;-0.873976403472283;-0.06090714678056486;-0.5134455493157626;-0.15272357522770985;-0.9488997137264716;0.015255277760106267;-0.33586235611847126;-0.0470393300813603;-0.6617197661683836;0.013248616135103752;-0.48417864257254717;-0.001140430948911586;-0.07818260479453265;0.18049031918802516
A;6.6;-0.7325944775233282;-0.23452343864002945;-0.8855971369475633;-0.05587596566770259;-0.5362452454661808;-0.1576951106482074;-0.955181420999164;0.02598253191463673;-0.3454960758976;-0.04638919291296606;-0.6651061434725642;0.02295122566820673;-0.4890113839114054;0.0033327653555703662;-0.09899814280067609;0.17812495568809528
A;6.7;-0.7371886584813874;-0.23303713648511604;-0.8927572118184086;-0.05050470803610363;-0.5554494772389909;-0.16164412035995834;-0.9590784898483111;0.0364164932970219;-0.3541993425325103;-0.04532642171976242;-0.6671959728304433;0.03180100459316382;-0.49268521622991823;0.007029926530809583;-0.1165127872432965;0.17585687977889375
A;6.8;-0.7378638814036869;-0.23115835884851776;-0.8957623270560395;-0.04484173424806137;-0.5712921315440225;-0.1646461539955304;-0.9607408642874073;0.04654319369976445;-0.3620222562857984;-0.04389074866605469;-0.6680870029274653;0.03982854535888247;-0.4952820837775329;0.009983735180552067;-0.13090561227914144;0.1736971470943418
A;6.9;-0.7351577812449008;-0.22892024972626057;-0.8951484148952309;-0.038921706208421725;-0.5843002580577679;-0.1668680669290037;-0.9603888658199686;0.056437666520933405;-0.36907116626574155;-0.04213417856292612;-0.6679041337081992;0.04716381978457296;-0.49693417731718625;0.012296231741441233;-0.14265597386656914;0.17161639126431272
A;7.0;-0.7295481038363416;-0.2263893440969742;-0.8914442974750258;-0.03286174164043931;-0.5948263270586471;-0.1684217407761759;-0.9583171906045918;0.06600777804197211;-0.3754346786895333;-0.04014240704940697;-0.6668370755218653;0.053816108679500374;-0.49778196425353727;0.014000876067271406;-0.15194638534961413;0.16968351385098135
A;7.1;-0.7216473550828448;-0.22364049774405093;-0.8853162798259708;-0.02678757883124039;-0.6033616721624915;-0.16946126948199858;-0.9548799087815008;0.07518022319185391;-0.3812326922747502;-0.03801498007070503;-0.6651073792016291;0.059828488849157146;-0.49800057273402576;0.01515743436079564;-0.15906488724493784;0.16797290200895
A;7.2;-0.7116778662800218;-0.2206715143220226;-0.8769593823103925;-0.020671560429539326;-0.6101434767627287;-0.17006340950884002;-0.9501268851471218;0.08405827795594245;-0.38649869391511515;-0.03575157165305143;-0.6627321231192447;0.06530164968711549;-0.4976272045811472;0.015838009868273772;-0.16431858253280218;0.16642491449811025
A;7.3;-0.6997298305406972;-0.2174736877615322;-0.8664361120622619;-0.01448038680678465;-0.6152661638772763;-0.17026208837017265;-0.9440545484053544;0.09272087404694673;-0.39123370459201556;-0.03333994172027133;-0.6596978811136083;0.07030086627065657;-0.4966616496978373;0.016089604734023766;-0.1679232655336662;0.16496261439345794
A;7.4;-0.6862486129157199;-0.21405251791794289;-0.8541588331427494;-0.008185397064718991;-0.6192177462741295;-0.1702102523797704;-0.936791974782663;0.10133088648904387;-0.39552567589365495;-0.030795006931515267;-0.6560627235080272;0.07500010328757867;-0.49519869386799;0.016035127914985736;-0.17042281097404732;0.1635032791974993
A;7.5;-0.6716515900146751;-0.2104088538173512;-0.8405080482016389;-0.0017485473356986247;-0.6224638477842177;-0.17005381434417366;-0.9284506206913745;0.11006023346006;-0.39945573787696986;-0.028125478836115825;-0.6518712072868578;0.07957583079412434;-0.4933219601161225;0.015798678718784487;-0.1723541264159696;0.16195906577533048
A;7.6;-0.6562030915132544;-0.20661478991667792;-0.8258190047711675;0.004685738382933735;-0.6250804546526272;-0.1698245390336215;-0.9192763640118446;0.11871104063497473;-0.4030540075711242;-0.025416122403219;-0.6472878452330608;0.0839405269133886;-0.49110878359340315;0.015355494436522399;-0.17375310018678292;0.16033583450505695
A;7.7;-0.6402213442727467;-0.2027712602196008;-0.8105155155531474;0.01090952935850531;-0.6271290852852198;-0.16955063271775472;-0.9095996060525051;0.12698484125250697;-0.4063608283937139;-0.02278517744673092;-0.6425413881076132;0.08794801376952233;-0.48866650611149165;0.014650416872884264;-0.17459614188591743;0.1586589165734278
A;7.8;-0.6237527892943939;-0.19892312466364537;-0.7946968602597027;0.01682704094744203;-0.6284896129063808;-0.16920155017294647;-0.8995491383229215;0.13471207805673213;-0.40935549475040833;-0.020279445461023116;-0.6377165356941203;0.09149801120210643;-0.4860021353484978;0.013644989987785294;-0.17475989258730174;0.15694925952505123
A;7.9;-0.6068160845160468;-0.19512156529258373;-0.7784449311226842;0.022325692345563475;-0.6289908437183378;-0.16873183689947968;-0.8892618003582147;0.14168538668033115;-0.4120092034218281;-0.017951958088004538;-0.6329054767057825;0.0944621234038161;-0.48311716593699305;0.012284923334942022;-0.1740641883202425;0.15523523624073743
A;8.0;-0.5899159589653227;-0.19144963310333996;-0.7623303415482354;0.027259762000519494;-0.6289780362187569;-0.1682517243688464;-0.8790718097672707;0.14776711768187134;-0.41441926364267534;-0.01590259313766662;-0.6283301604313092;0.09682266552124386;-0.4801704460446743;0.010587812422514276;-0.17281654374902367;0.1534789504706504
A;8.1;-0.5735621903794277;-0.18797089393430788;-0.7469029619182832;0.03153182297484047;-0.6288563874063797;-0.1678867936888233;-0.8692699719021704;0.1529072171890311;-0.4166896449239177;-0.01420815471104131;-0.6241777660502361;0.09861867591270901;-0.4773168421287828;0.008601467876355073;-0.17140525860041933;0.15163054140844956
A;8.2;-0.5582615247009981;-0.18478969279754853;-0.7327623594987722;0.034945539422192695;-0.6289196548573885;-0.16773579530401062;-0.8602394674322555;0.1568778506956976;-0.4189122135726926;-0.012994174203230457;-0.6207031146685127;0.0997782908322673;-0.4747154074145312;0.00631730786803697;-0.17006119657887453;0.14966539060730888
A;8.3;-0.5445143889947595;-0.18200257378367724;-0.7204914981593831;0.03732451983932705;-0.6294773942722536;-0.16790006728982654;-0.8523433751718681;0.15948492493081634;-0.42118208350396724;-0.012375399536747267;-0.6181481380463705;0.10024866470176175;-0.4725265268576422;0.003734534921346011;-0.16903673854883117;0.14755588115798712
A;8.4;-0.5321965145243963;-0.17957323864665398;-0.7099270159326512;0.03875888413238915;-0.6304235457468943;-0.16834218198089346;-0.8454826668927815;0.16084466553100718;-0.4234563845064132;-0.012297525116093944;-0.6164246384246779;0.10008890648100621;-0.47068494342236544;0.0008941910733648584;-0.16829060778937865;0.1453183862677241
A;8.5;-0.5209647167307292;-0.17743333763163793;-0.7006618880838325;0.039396726939411764;-0.631471103299762;-0.1689694446082104;-0.8394276182139047;0.16111902032798753;-0.42563849932116327;-0.012665258695627735;-0.6153485653092066;0.09936042044488236;-0.4690430069429672;-0.002165247545804938;-0.1676253235288634;0.14299399977732818
A;8.6;-0.5106956103666578;-0.17551650532730179;-0.6924913183896599;0.03940709697960898;-0.6326058606514735;-0.16976249822445233;-0.834006370712217;0.1605650626652677;-0.4277070077319429;-0.013382184309090661;-0.6147908239556559;0.09820271991841434;-0.4675560480139378;-0.005371723304655518;-0.16711950561267308;0.14057724832674268
A;8.7;-0.5011817286349576;-0.1737373392113435;-0.685108684452584;0.03899798353376305;-0.6337617568558809;-0.1706840953158748;-0.8289826350745146;0.15948727462799095;-0.4296229135397578;-0.014327751260283073;-0.6145757764422246;0.09677393000979251;-0.4661490065354803;-0.008645667250742228;-0.16681617522226233;0.1380685861326798
A;8.8;-0.4922094079910222;-0.17208018106784984;-0.6782899005389877;0.03820200105940508;-0.6346876821986562;-0.17166411752891975;-0.8242712677615911;0.1578769371819293;-0.4313101753005393;-0.01547356512463871;-0.6146151942619289;0.09505273038290518;-0.46471131593664694;-0.011984482516631978;-0.1664920131908918;0.13551566241472734
A;8.9;-0.4836568996395316;-0.1705493471683246;-0.671918670874863;0.037013570817594044;-0.6352008738353145;-0.17265483277117877;-0.8198516299380776;0.15568158947090716;-0.4327171665478611;-0.01681495141760525;-0.6148699055200106;0.09300153648847242;-0.4631713493116978;-0.015394711152269203;-0.16597077093953772;0.1329574726864955
A;9.0;-0.4751411805005752;-0.16909779654411938;-0.6655790092280869;0.0355235925091657;-0.6349167620937193;-0.17354249204173833;-0.8155321102624065;0.15295216993431815;-0.4337252346917717;-0.018286288188494204;-0.6151699380788997;0.09061586612245698;-0.4613497325862559;-0.018864356640390767;-0.164924050034708;0.13046105155664023
A;9.1;-0.46628447461742084;-0.16768419639130716;-0.6588652157623196;0.033810336886266334;-0.6334490541766771;-0.17421468275127694;-0.8111316055304192;0.1497195560742881;-0.4342170300758941;-0.019828667493548835;-0.6153526632790616;0.08787999441742045;-0.4590692020272993;-0.02238771372463244;-0.16301325011853862;0.12809431781638114
A;9.2;-0.4571894848353111;-0.16627399690722378;-0.6518117056338593;0.031996276798968104;-0.6310120600084046;-0.17471790892083572;-0.8065923464096212;0.146218305487281;-0.43424979722424695;-0.02137800305909643;-0.6153892543856871;0.08493928519153204;-0.45640240772865237;-0.02590183810134672;-0.1605069315455676;0.12581454364924838
A;9.3;-0.44804598272815355;-0.1648187527549645;-0.6445166622759144;0.03024823731086901;-0.6279610289395574;-0.1751310467602103;-0.801851706893931;0.14278496600913737;-0.43391854317812495;-0.022850724177826187;-0.6152582096885997;0.08200496567603288;-0.45347224924048923;-0.029315726495963368;-0.1578351189324252;0.1235508802748102
A;9.4;-0.4390355989545558;-0.16332210511680234;-0.6371279060203676;0.028605193571688226;-0.624533550141674;-0.17551908035799002;-0.796941208129935;0.1395309356601695;-0.4332942176160284;-0.02422968339313325;-0.6149916466547083;0.07916005247627833;-0.4503751735962327;-0.03259740435931491;-0.15524288591886126;0.12126131686079411
A;9.5;-0.43039627628319366;-0.16179068769891813;-0.6298465243989435;0.027106300167126562;-0.6210365449640731;-0.1759658427673525;-0.7919096654222741;0.13658202768263994;-0.43246930459400446;-0.02549975988401787;-0.6146401392316196;0.0765011929725441;-0.44723836253600435;-0.03571182528803263;-0.15304054873166884;0.11889139421510908
A;9.6;-0.4220620781784028;-0.16015207969063727;-0.6225208308932073;0.02593990168640481;-0.6175387923495981;-0.17646621209045676;-0.7866025001842871;0.13424933603842248;-0.4314503060477062;-0.026559048259161777;-0.6140900334769315;0.07420077378966639;-0.4440505734187514;-0.03857074159027363;-0.15139702923752552;0.11642149572439031
A;9.7;-0.4138726854875969;-0.15833722764099445;-0.6149198328397025;0.025272570378701786;-0.6139789755619782;-0.17698225592892136;-0.7808525861992077;0.13278379023982012;-0.4302056542194048;-0.027314329031663753;-0.6132056049025865;0.07238800546380286;-0.44074492933065024;-0.04110014057589417;-0.15034502634378022;0.11385681701414363
A;9.8;-0.4058594207050019;-0.15627041457380475;-0.6069688055715927;0.025316933827256527;-0.6105784763360074;-0.1775474120465148;-0.7745097920838155;0.13255824047149822;-0.4287905690931124;-0.027653495675934003;-0.6118969972135488;0.07128017975942491;-0.43737956886323737;-0.043203619183517894;-0.15020190905104513;0.11114854468340951
A;9.9;-0.3980242197766479;-0.15387759527477218;-0.5985722672670617;0.026274847746961427;-0.6075100240555775;-0.17818231727735157;-0.7674270128509573;0.1339191682795411;-0.42724512790556624;-0.02747035914145446;-0.6100689384287863;0.07107805771138676;-0.433989624493309;-0.0447874590019568;-0.15123587919641857;0.10825791033420185
A;10.0;-0.39033638592851894;-0.1512051936574128;-0.5897381937079347;0.028049017341865046;-0.6046531723620596;-0.17887285446414225;-0.7596715040800799;0.13669184051084482;-0.4255424216651127;-0.026814108479509713;-0.6077402267991596;0.07168300944250028;-0.43053038649799547;-0.04589084297287371;-0.1532709798164653;0.10521567343971316
A;10.1;-0.38281960924077296;-0.14833992993311274;-0.580561281863968;0.030454244982860423;-0.6018905435771167;-0.17961959655621218;-0.751386258149429;0.1405578777237162;-0.42366690117990213;-0.02578069703982422;-0.6049866903752292;0.07292125888945389;-0.4269800197304159;-0.04659649445519687;-0.1560763581820659;0.10205671532753868
A;10.2;-0.3753051416253461;-0.14532902365812017;-0.5709473068804414;0.03335874420435747;-0.5988742401792075;-0.18034606501009964;-0.742645566972227;0.14524710684070818;-0.4215173173641622;-0.024438624647423524;-0.6017945008105672;0.07463258999830558;-0.4231821805101692;-0.04694489193872098;-0.1592621039546689;0.09885809974867943
A;10.3;-0.3676150667836433;-0.14223601488046977;-0.5608120920817781;0.0365890698140765;-0.5952122852258661;-0.18096988313590767;-0.7335515273940567;0.15041838036723387;-0.4189822793716118;-0.02287794126446574;-0.5981643004002413;0.07661414406679956;-0.41896777326302104;-0.046995626852234906;-0.1623725263865179;0.09570707964311698
A;10.4;-0.3598919187680929;-0.139119208675055;-0.5503112292632082;0.04005207656705956;-0.5910412427242395;-0.18154670642669934;-0.7241981761511775;0.15591960348224454;-0.4161275789594763;-0.02114881305980898;-0.594180957023303;0.07880354136854795;-0.414429891357214;-0.04680537992719547;-0.16544399190091674;0.09258797921722994
A;10.5;-0.35228398357536594;-0.13601755793391135;-0.5395873546988295;0.04369971403392903;-0.5865392502151447;-0.18213471139667803;-0.7146516310816002;0.16166965579709203;-0.4130286110591985;-0.01927953243820557;-0.5899144156645457;0.08118339047146339;-0.4096721669976251;-0.046408956751482044;-0.16857836756389943;0.08947646216925964
A;10.6;-0.34494977837249063;-0.13302278713178328;-0.5288419892552492;0.047362517572256735;-0.5818144957418454;-0.18279598607486136;-0.7050574659638773;0.16741348924395538;-0.40974925076034463;-0.017358062400819385;-0.5854848083402304;0.08362115984757956;-0.40478994238034005;-0.04590180774601915;-0.17173620099954157;0.08636360501668072
A;10.7;-0.3380677057600776;-0.13022423742535771;-0.5182904309216427;0.05087954409927864;-0.5770108917239503;-0.18360016500625687;-0.6955595232389138;0.17290944290868904;-0.40636586714115275;-0.01546883852741221;-0.5810178809818503;0.08599581063967143;-0.3998965849545799;-0.04537800972062822;-0.17491234506893782;0.08323418616581879
A;10.8;-0.3314045596467361;-0.1276193417553637;-0.5077522956232183;0.05421098066066676;-0.5717483157684828;-0.18443756080982165;-0.686172942218171;0.1780129930896157;-0.4027556097918179;-0.013638933015132082;-0.57644552281708;0.08822433136011743;-0.3947927137689087;-0.0448199758019836;-0.17775615994148097;0.08017226621801843
A;10.9;-0.32458700925191053;-0.1251907440764688;-0.49692714227372026;0.05732089123279671;-0.5654472903893897;-0.18514033686874587;-0.6768891419241436;0.18257469470628784;-0.39872344377849434;-0.011892900939867168;-0.5716458033420055;0.09020162704880619;-0.3891688270364364;-0.04419136604086393;-0.17975649873344146;0.07729885035855233
A;11.0;-0.3174758874734618;-0.12291583693251962;-0.4856862645887574;0.060234936149598184;-0.5579168037455222;-0.18563762246344329;-0.6676943269473421;0.1865495318911563;-0.3942102749361718;-0.010227046083287838;-0.5665659136523846;0.09192281229612131;-0.382917370794452;-0.0434588501590234;-0.18075723844216718;0.07466282316385353
A;11.1;-0.30989313691839193;-0.12075994062238049;-0.4738620601141319;0.06299631370890069;-0.5489204981868427;-0.18584059647314977;-0.6585596527549864;0.18990914200062647;-0.38913917931794195;-0.008629653622993949;-0.5611336735626464;0.09339229471900978;-0.3759023483253294;-0.042575293042809825;-0.18057729347527562;0.07232198836961423
A;11.2;-0.3016003330726713;-0.11875813434676896;-0.46130114105025743;0.06548041431315088;-0.5380390979583041;-0.1856510166387917;-0.6495351013187447;0.19246043137213587;-0.38337903279082486;-0.007163438111218667;-0.5553039265915274;0.09444812324384966;-0.367919054405939;-0.04157049354745723;-0.17877383426287707;0.07036283589384151
A;11.3;-0.29246122335984914;-0.11696345572408351;-0.44794168108162236;0.06754485517817788;-0.5250001955460144;-0.18501798151787785;-0.6406901961868163;0.1940162901092286;-0.3768534743990575;-0.005898378469290755;-0.5490753873672185;0.09493036095937857;-0.3588478810173328;-0.040499666781928845;-0.17500922482073378;0.0688430108381386
A;11.4;-0.2821301807319667;-0.11538752274852015;-0.43353745670804145;0.0690868615864435;-0.5092288580276234;-0.18378836362434292;-0.632057935449172;0.19437090953622427;-0.36937356207688143;-0.004889744012103847;-0.5423608818146679;0.09467722662748912;-0.34839473085301265;-0.03936227441993534;-0.16873238291408654;0.06788154229799392
A;11.5;-0.2702981308980439;-0.11404830299370339;-0.4178730940301305;0.06999888138972388;-0.4902117435306348;-0.1818297865281009;-0.6236717023445975;0.19333820863628226;-0.3607723524537958;-0.004192816151682877;-0.5350868305663754;0.09352983704633289;-0.33630012809970733;-0.03816860989680304;-0.15943736499147043;0.06758374173592863
A;11.6;-0.2572081876713499;-0.11295702336645252;-0.40113515275235745;0.07031208053753435;-0.46835556439231496;-0.1792430988320879;-0.6155498951941905;0.19097508009460107;-0.351208070225681;-0.003798153619924527;-0.527345028408515;0.09155732197648003;-0.322788985671532;-0.03694667806755447;-0.14744789797127034;0.06788331742844989
A;11.7;-0.24322483632721426;-0.11210582714254702;-0.3835898954328689;0.07012151937493627;-0.44427884950027785;-0.17617112971347737;-0.6076977524028582;0.18740129375149817;-0.3409117396186492;-0.003669240840276089;-0.5192575578374639;0.08890927947883398;-0.3081923601935159;-0.03570748387399192;-0.13330290836398184;0.06867785624049194
A;11.8;-0.22873417794537154;-0.111539970061445;-0.3655469055562257;0.06942477156152194;-0.4186268084274696;-0.17280284867239892;-0.6001363740387493;0.18275115580886592;-0.3301266447544089;-0.003801026990721823;-0.5109689577396255;0.08565359821099605;-0.2928702260936529;-0.034530970933392524;-0.11749016453573091;0.069844967479324
A;11.9;-0.21420113118957307;-0.11130401267379497;-0.3473739493272392;0.06823793234689379;-0.39217628402658367;-0.1693607377713331;-0.5928850225003046;0.17719965140350702;-0.31914259123945143;-0.004179701757594856;-0.5026481878616753;0.08188949691175029;-0.27725236788310514;-0.03350067383133837;-0.10061527867657638;0.07123749167459259
A;12.0;-0.19975068336308333;-0.11135815327310983;-0.32915228576058464;0.06665642350592638;-0.3651598963281977;-0.16586581737445805;-0.5859413083165501;0.1707683863913374;-0.30804924924909205;-0.004773842682858742;-0.4943374976710464;0.07772312765891876;-0.2614567004036017;-0.03257867993301833;-0.08291699887602633;0.07283197033253952
A;12.1;-0.1854211866142883;-0.11166302023408914;-0.31090057127952697;0.06475444509357775;-0.3376735693248687;-0.16230577625024623;-0.5792994514488239;0.16345312538805423;-0.2968861631188977;-0.0055595491996065505;-0.48605159814870813;0.07322676369394987;-0.2455280225723282;-0.03172505184420071;-0.06451161258468474;0.0746284988584982
A;12.2;-0.17146117032951302;-0.11216903978990267;-0.2927849320576028;0.0626744433990094;-0.31015439227055186;-0.1587461455790402;-0.5729544197530805;0.15535304545636563;-0.2858164291798593;-0.00648765830049669;-0.4778694726891768;0.06857002129024092;-0.22969179103834136;-0.030896747824614934;-0.045832581709237985;0.07656867967950998
A;12.3;-0.15809013201523392;-0.11282049765902169;-0.2749490404108288;0.06056236743387089;-0.28299528489055525;-0.15523746454634502;-0.5668977901491337;0.14656172203158047;-0.2749858039047002;-0.007507440958280931;-0.4698593993996969;0.06392102160193147;-0.21414784658495645;-0.030042354063710697;-0.027282798495477323;0.07860289734327264
A;12.4;-0.1455537489765648;-0.11368326365181325;-0.2576109489100107;0.058343108386549325;-0.2566395052946735;-0.15193953331424126;-0.561134238277555;0.13723195027238866;-0.2645598736447088;-0.008632045916788122;-0.4621225022307094;0.059262430171097336;-0.1991513514477088;-0.02926929127177047;-0.009140717350723193;0.0806314657096916
A;12.5;-0.13417271500592864;-0.11486221830353482;-0.24105940647258706;0.05588715264493338;-0.23165147450917356;-0.14907262145152878;-0.555676003939328;0.12758023705406707;-0.2547500962093441;-0.009890279187290574;-0.4547924362156497;0.05454263000422088;-0.1850327822745914;-0.028739213596432833;0.008262376878036548;0.0825206538611658
A;12.6;-0.12401676317772647;-0.11639642146361684;-0.2253794726431746;0.053122890155115066;-0.20819102279644497;-0.1467061618545129;-0.5505199477442764;0.11767976271713199;-0.24561517024992163;-0.01129579234938305;-0.4479097988228533;0.04971740660444279;-0.17188740805965974;-0.02851772743240044;0.02486135623442909;0.08422824146199215
A;12.7;-0.11514431457987762;-0.11833607271917668;-0.210653669545656;0.04995484962405783;-0.18640285895646347;-0.14491552799424312;-0.5456618774389153;0.10760884867755571;-0.23720734206080873;-0.01286841691518692;-0.44151320000055616;0.044720597997691236;-0.1598045957378602;-0.02868506495075973;0.040619409823080765;0.08570978733093426
A;12.8;-0.10794990530022108;-0.12074067373599195;-0.19720061362681385;0.04635721250222513;-0.16695746374729215;-0.14390868814523916;-0.5411191358724761;0.09765536104856043;-0.22977979754642686;-0.014610064357208685;-0.4357541589412586;0.039599606152492584;-0.1491653582490926;-0.029348620513511392;0.05504906516626118;0.08683030232271349
A;12.9;-0.1027984146312253;-0.12363810007482812;-0.18530459637320096;0.042354853142490434;-0.15047114485737723;-0.14385432943344068;-0.5369084990931192;0.08809451847796446;-0.22356589338683897;-0.016509676527459938;-0.4307700400648473;0.03443949974898253;-0.14031501286622117;-0.030573458329347325;0.06766688175373137;0.08747566668632967
A;13.0;-0.1000985225664035;-0.12711918917853904;-0.17530901012882616;0.03786722404313991;-0.13765336510573167;-0.14499938293410164;-0.5330387894639737;0.07922982598965067;-0.21882847230879676;-0.0185791294539861;-0.42671807586651234;0.029246605663661995;-0.1336600439874962;-0.032510417370458455;0.07799133542109349;0.08748799902459847
A;13.1;-0.10024428963819165;-0.1312625763723343;-0.1675411459180829;0.03283294436399675;-0.1291820053870394;-0.14757172176971434;-0.5295228276846045;0.07136566589311233;-0.21582007615287857;-0.02082746182872519;-0.4237503842760981;0.024039627341122305;-0.12958876551150578;-0.03529361141278997;0.0855518074494741;0.08672053369536581
A;13.2;-0.10305844701037614;-0.13598957932961753;-0.1618652871787356;0.02733288149408608;-0.12480029649850444;-0.15144402465295492;-0.5263474420769567;0.06446076986980831;-0.21444223340621882;-0.02322943713112391;-0.42180977357527727;0.018861842494962033;-0.12794557195889222;-0.038825740167777845;0.09048586551958238;0.08524315440484553
A;13.3;-0.10817167455037424;-0.14118861457507048;-0.15799933656853682;0.021459019989518602;-0.12395145804315444;-0.1563927645419163;-0.5234818552566747;0.0583486008433205;-0.21447948307219455;-0.02575370818348155;-0.4207678523296643;0.01373650028232909;-0.12840144963007472;-0.04295904202103795;0.09314803526293147;0.0831847336577356
A;13.4;-0.11538316614977973;-0.14673393804537316;-0.15576607024984135;0.01537597748224151;-0.12629858267082117;-0.16222366143341382;-0.5209385602318601;0.053004349256444705;-0.21581364025231764;-0.02836565009755354;-0.4205614017982864;0.008765618525834462;-0.13075591814778598;-0.04753151665151911;0.09368320067787295;0.080655183555006
A;13.5;-0.12441071476977417;-0.15247671083408587;-0.15492203661600978;0.009269923932349045;-0.1313712967831311;-0.16869159147094326;-0.518725931946622;0.04835956233589034;-0.21827606720040205;-0.031025273290190114;-0.421096973084242;0.004055869454011152;-0.13473059643989593;-0.05234741946124899;0.09232166206681036;0.07779516639722761
A;13.6;-0.13500086919825272;-0.158376190799566;-0.1552958395746895;0.0031342037263213385;-0.13883390037029741;-0.17569329862373895;-0.5167966297497086;0.04429372188701386;-0.22172324152664746;-0.03371598886959326;-0.4222837503120802;-0.00042678587596611806;-0.14012648435552855;-0.057360185202456115;0.08931200225967739;0.07465892669613972
A;13.7;-0.14698307597090832;-0.16441560370853736;-0.15678177956919548;-0.0030587186875328243;-0.14848129616216355;-0.18317594075763388;-0.5151105011368919;0.04073656890674471;-0.22606137009095306;-0.03642781595743205;-0.42406149145974226;-0.00472121251508284;-0.146822470714997;-0.0625583215191563;0.08481884478191226;0.0712700366234813
A;13.8;-0.1599466224503585;-0.1705189234423763;-0.15908753807038778;-0.009293572478743073;-0.15973188614574596;-0.19095170459674282;-0.5136036388251917;0.0374909231983791;-0.2310512010691239;-0.03913531854847552;-0.4262805111091952;-0.00886676509056361;-0.15447417289650556;-0.06784244597399525;0.07925899579690032;0.06773443902052634
A;13.9;-0.17348471452172198;-0.17661881608617502;-0.1619261748690075;-0.015568712558089004;-0.1720144745201715;-0.19884376076035615;-0.512209337789022;0.03435532052295631;-0.23645555350974679;-0.04181520470219802;-0.428791465731579;-0.012912796489962908;-0.1627441428688572;-0.07312526445878653;0.07304966788426714;0.06415114234077901
A;14.0;-0.18758831701762446;-0.18262266723089127;-0.16525719266952255;-0.021722478960653824;-0.1852595573794975;-0.20674110277062052;-0.5109787175851253;0.03145221624123451;-0.24226628017876273;-0.04444690395609818;-0.4316043631176374;-0.01673716439617312;-0.17159570206500252;-0.07829477224878101;0.06614034826532489;0.060579970865102695
A;14.1;-0.20231269990585865;-0.18841029529702258;-0.1690698399218027;-0.027525137449726067;-0.19945904091116162;-0.21451540677483116;-0.5099937143942945;0.028989974043152955;-0.2485106370730863;-0.047005204747508245;-0.43475695083239607;-0.020158240861194443;-0.18102810077749165;-0.08320244297529378;0.05839341226688077;0.05709186173756997
A;14.2;-0.21772004663654876;-0.19394288812643623;-0.17339205010845582;-0.032890284987220575;-0.21468392040924034;-0.22214010123002126;-0.5092922114356178;0.027085428543936807;-0.2552241522669334;-0.04948079754102164;-0.4382799206699728;-0.023100471263570732;-0.191089220381091;-0.0878126242229138;0.04969890513729425;0.053693611219298276
A;14.3;-0.233919637354993;-0.19918296238375532;-0.17828181957003952;-0.037719377912217134;-0.23106519771183276;-0.22960077851878413;-0.5089251367799177;0.025888736187590133;-0.26246908145687;-0.05186618436921364;-0.4422222149007702;-0.025473619093106414;-0.20186354913822413;-0.09209229467466606;0.039895364526659094;0.05038491947406509
A;14.4;-0.25073944066397935;-0.2039943864493754;-0.18357691619961436;-0.04182166358242334;-0.2482878692700945;-0.2366997296636164;-0.5089154677182295;0.02549347818351322;-0.2701400116961956;-0.05412631809825985;-0.44653155044088333;-0.027153466537763293;-0.21316175562289796;-0.09586439666258872;0.029093415977155423;0.04727928434383788
A;14.5;-0.26792612469418486;-0.20825390846958314;-0.18906856633545033;-0.045053343767357035;-0.26594429818400744;-0.24323763878890858;-0.5092539431659953;0.02592575305123379;-0.2780851511552216;-0.05622577990094513;-0.45112087932800815;-0.028060674583455736;-0.22473745695062242;-0.0989676012784022;0.017499429671292255;0.04449050089468187
A;14.6;-0.28539282989460446;-0.21181640316039196;-0.19464010162866074;-0.047177565138679434;-0.283805475344554;-0.24901886474336088;-0.5100029204494527;0.027332768378315997;-0.2862451194660913;-0.05813388251859042;-0.4559733911393211;-0.02802890345992015;-0.23645773309405094;-0.10121268736035471;0.0051351403703030485;0.04213274903649822
A;14.7;-0.30302597793391506;-0.21454261399628027;-0.20016190913547316;-0.04797729221242264;-0.3016175087594277;-0.2538520072252721;-0.5112089615642237;0.029846347215721103;-0.2945460061060219;-0.05981896094990269;-0.46105983889112423;-0.02690904530827698;-0.2481720974025734;-0.10241753627036854;-0.007948446521155006;0.04031755696526851
A;14.8;-0.32070872463845657;-0.21648085266836237;-0.20558209280236905;-0.04757227148673948;-0.3192954855250649;-0.25778033225429287;-0.5128038941001245;0.03336415250040847;-0.30292298185801236;-0.06128166110627653;-0.4663247983922112;-0.024801073593351042;-0.25983147135418516;-0.10266133252304854;-0.02162516008780635;0.039006406894344536
A;14.9;-0.3383845741356506;-0.21773962306942085;-0.21090875956151311;-0.0461681911905929;-0.33687402295954794;-0.26093030790248317;-0.5147100118125483;0.03773056807778463;-0.31134768407436564;-0.0625382426616996;-0.4717299665908481;-0.02186336011198975;-0.27146311381485155;-0.10210719933122903;-0.035803779598500896;0.038109316442508145
A;15.0;-0.3558108949902241;-0.21838085347189118;-0.21602678976868006;-0.04395661360489633;-0.35414803500426206;-0.2633505722309639;-0.5167885981086568;0.04279398334352269;-0.3196881802903855;-0.06358054054971607;-0.47716404608163376;-0.018259561426377857;-0.28293157520803813;-0.10084959719485198;-0.05023141303189682;0.037583883724526146
A;15.1;-0.37274105747118913;-0.21849331406648442;-0.22082917533627544;-0.041177687035684585;-0.3709305213049632;-0.26512228241530345;-0.5188836746773271;0.04836742827780327;-0.3278114021524905;-0.06440509743859302;-0.48251020289121005;-0.014189922612161787;-0.29411217253881095;-0.09901986682642061;-0.06463959788893625;0.037367089668383535
A;15.2;-0.3892327014293766;-0.21814208186308726;-0.22536769620921593;-0.03791515046605731;-0.3873249356894819;-0.2663279844491697;-0.5210012401804178;0.054375127218936115;-0.33574737963687973;-0.06503353446179982;-0.487783605769061;-0.009715560571682325;-0.3050838687571078;-0.09671811639043337;-0.0790539651776907;0.037402429358937894
A;15.3;-0.4053476272901886;-0.21736504810450974;-0.22968652406924583;-0.034203856413438594;-0.403415168749639;-0.267018694704797;-0.5231626547165442;0.06078121123937663;-0.3435274643673276;-0.0654829340933123;-0.4930041942528103;-0.004861097122794256;-0.31591195405140926;-0.09400506210181003;-0.0935144024469512;0.037655084537156824
A;15.4;-0.4211642498167638;-0.21627780799746787;-0.23386597338788206;-0.03020670310334328;-0.41936825106830344;-0.2673397913072968;-0.5253558971813055;0.06745306631718595;-0.35119386158621424;-0.06578583820151351;-0.4981883520725763;0.0002552671178710497;-0.32671760731682387;-0.09105214217366786;-0.10804579070741305;0.03802741179593916
