Condicao;Tempo_s;Ch1_HbO;Ch1_HbR;Ch2_HbO;Ch2_HbR;Ch3_HbO;Ch3_HbR;Ch4_HbO;Ch4_HbR;Ch5_HbO;Ch5_HbR;Ch6_HbO;Ch6_HbR;Ch7_HbO;Ch7_HbR;Ch8_HbO;Ch8_HbR
A;-20.0;0.2313595336480283;-0.026927353182710334;0.18841719775385246;-0.02276075407496614;0.6803649432546468;0.1650311283302477;0.19496382543283497;0.008650618094851348;0.19373704574154327;0.17868123663289648;0.1347988438975706;-0.003403438954606819;0.4463420105024527;0.05209338027578836;0.21254506192430012;0.002344822718002959
A;-19.9;0.2308845931714516;-0.028731682684478344;0.1919816307254416;-0.022913550516395764;0.6755370200568525;0.1612959998690997;0.190135734551377;0.007462768815314824;0.18840002315570248;0.17451872131794133;0.13330005080720983;-0.005234717978481851;0.4429409410080869;0.05080428314467933;0.21206590832984118;0.0028155628050854364
A;-19.8;0.23068761069540766;-0.03050985405604356;0.19554876082304895;-0.02309231827033198;0.6711597191548307;0.15740895192245774;0.18585913202723758;0.006289159218137774;0.18263875929440754;0.16985674003490958;0.131355626017893;-0.007295514682378879;0.440061164714882;0.05019919596932443;0.2120020804232009;0.0034663894055293465
A;-19.7;0.2307921034690683;-0.03224646845342782;0.19913304577669777;-0.023283210972660395;0.667256434025813;0.1534278873260715;0.18215399205309635;0.005138984368116883;0.17659911128052408;0.16483178400478926;0.1290540699363759;-0.009537293143574876;0.4377086443684468;0.0501969757746179;0.21230702074678054;0.004265847317595606
A;-19.6;0.2311956480765216;-0.033926046188234915;0.20275035636126704;-0.02346398706261299;0.6638118412168349;0.14942339740205446;0.17899932870175905;0.004023258595142298;0.17044232483331367;0.15961669755559038;0.12649462686494725;-0.011903365561358292;0.4358133285146748;0.050652013677474406;0.21288131251412434;0.0051614543471165675
A;-19.5;0.23186196584368668;-0.03554505463903457;0.2063774232593396;-0.023624043356554214;0.6607591184808697;0.14543097601586075;0.176325480734288;0.002940591128317127;0.16416700510108917;0.15424245225484912;0.12372022927075607;-0.014374774235063392;0.4342859464008644;0.05147177581962237;0.21364748133524292;0.006119700831388686
A;-19.4;0.2327316967148807;-0.03710417711610958;0.2099772010696156;-0.023754419918357694;0.6579939358360235;0.14148131324391522;0.1740352018208784;0.0018872942087835298;0.1577329242962845;0.14871555761018818;0.12075131382456164;-0.0169465250084484;0.43299215156951365;0.0525434726109808;0.2145145654065853;0.007099910833162193
A;-19.3;0.23377611422368694;-0.0385997976240009;0.21354719016750356;-0.023842913848583613;0.655497320810912;0.13759735583896116;0.17208349260296307;0.0008680512637204707;0.1512163534817197;0.1431245387383444;0.11765815898672263;-0.01957004982855548;0.431873222921068;0.053792925838614725;0.2154156925369789;0.008085358499829054
A;-19.2;0.23497408505979345;-0.04002915403714846;0.21708294033867637;-0.02388159242160115;0.6532686864729061;0.13379586509445174;0.17044203591599305;-0.00011215114131557513;0.14469167704899977;0.13754879504182282;0.11450839586370068;-0.022195681237073828;0.43089701373159617;0.05517323507063421;0.2163007001329197;0.009067812930760644
A;-19.1;0.23630522832220313;-0.041386579665034784;0.22058145516816685;-0.02386233610038624;0.6512791562386728;0.13011614010034656;0.16909793983639765;-0.0010435430962933978;0.1382818171885829;0.13211549598034833;0.11135211171604495;-0.024788908243648322;0.4299939523933294;0.05656959242094728;0.21710847665004152;0.01000908871160644
A;-19.0;0.23776593689726488;-0.042663570980966625;0.22404729270202284;-0.023778279316077455;0.6495248354277343;0.12660681956932462;0.1680680491688875;-0.0019130793132420276;0.13215297935367065;0.12698467983650907;0.10824896038952683;-0.027308272536560874;0.42911985214418946;0.05786646025932751;0.2177868678900179;0.010868552067469173
A;-18.9;0.23935730011579404;-0.043855628860731244;0.2274485836183019;-0.023635848630613188;0.6479943771023069;0.12330965228651802;0.16736714522536178;-0.002716340046536425;0.12634008288844745;0.12219861802503251;0.10522463566659138;-0.029739093745417167;0.4282620754518536;0.05901930900951502;0.21830524165186505;0.011614256236597065
A;-18.8;0.2410899903362409;-0.04495630021386399;0.2307525886897538;-0.023441753005793986;0.6466742088194151;0.12027520717181073;0.16701738235557384;-0.003449808497174356;0.12086993025673354;0.11779186691071142;0.10230578898166107;-0.03207134255444066;0.42741885316056005;0.0599847273906462;0.218635718456051;0.012209452608500815
A;-18.7;0.24300690970200023;-0.04595295319808357;0.23396115192630507;-0.023197480004939486;0.6456370389225193;0.11756415244795204;0.16708705391509393;-0.004103265324833627;0.11589251621117869;0.11389873504500247;0.09958121883294882;-0.03424785209761472;0.42665487298888416;0.06073120872027249;0.21875863605136436;0.012631367542633942
A;-18.6;0.24514434877461277;-0.04683484470151544;0.23707077429986123;-0.02290478188141387;0.6449492094834379;0.11523220743705109;0.1676290251811976;-0.004669365161890537;0.11152646483734185;0.11062924277088437;0.09713604055563038;-0.036214518433980714;0.42602810880753395;0.06123640594709334;0.21864947037921134;0.012860442347059076
A;-18.5;0.2475355837501232;-0.047584999009428586;0.24010340593313728;-0.02254920203208588;0.6446177137850824;0.11335430117037149;0.16867220867248545;-0.005139420887830148;0.1079323398982317;0.10813595510950424;0.09506923198560649;-0.03792431514568195;0.42554772430445054;0.061397074872762136;0.21825955812887554;0.012852366949937633
A;-18.4;0.2502033235384302;-0.04818865167931685;0.24308239625539863;-0.022115224995873595;0.6446408495208164;0.11199405373540317;0.17022885509437358;-0.005506552366678852;0.10526276841520288;0.10656312922488276;0.09347389102938183;-0.03933366178935016;0.4252113222678202;0.061108064515443816;0.2175417588814721;0.012568589239968064
A;-18.3;0.25308893800784293;-0.04865217245663467;0.24595440040206162;-0.021603016114745355;0.6449041840680525;0.11116326078332261;0.17219527222218445;-0.005781629486945272;0.10338845518021278;0.10582985571276726;0.09233295542181694;-0.040466009433781314;0.42490145784074507;0.060309364286623035;0.2164250835561885;0.011977877823130312
A;-18.2;0.25611611594001116;-0.048986882653017316;0.24865795360049514;-0.021016120077556044;0.6452627157853906;0.11084877126246573;0.17444077114966405;-0.00597913037182507;0.10212491308831884;0.10579948011608153;0.09159773465772172;-0.041364612545738755;0.42448574367952396;0.05896102450517304;0.2148542094074578;0.01106023848029003
A;-18.1;0.25922149126224525;-0.04920928870421282;0.2511369654789989;-0.02037179461569205;0.6456831049855218;0.11100124153545399;0.1768840289136011;-0.006111292399606061;0.10135589885487106;0.10636862048560936;0.09122745974123112;-0.04204587141317184;0.4239224429916624;0.05710097751303955;0.21283273460296737;0.009842366428155724
A;-18.0;0.26233383148366696;-0.04934138288389689;0.2533246065279494;-0.019696625637254828;0.6461486532941869;0.11155189866747328;0.17944798559307173;-0.006190102215412496;0.10094311545434198;0.10740984050418412;0.0911586635565321;-0.042529275513588094;0.42317783925066754;0.05480353311555941;0.2103799455455001;0.00836483418573497
A;-17.9;0.265443646858758;-0.04938796445140192;0.2552312210054044;-0.019002121385939263;0.6466534037756885;0.11244061619131873;0.18211852770417614;-0.006215753230366383;0.100915051555167;0.10889320568408034;0.09137391489462002;-0.042820487059944345;0.4223133476977958;0.05213351427692281;0.20758581908640517;0.0066765247684683615
A;-17.8;0.2685548241380158;-0.04935194083182859;0.2568776790588392;-0.018300377987232608;0.647219855998516;0.11360977204595368;0.18490639212248872;-0.006185601012966613;0.10134310789714396;0.11082049643383551;0.09186806909015069;-0.04291431725198769;0.42141774567563717;0.0491620755111406;0.20455270163548267;0.004830998575019896
A;-17.7;0.27162273657494507;-0.04924934912540868;0.25822211442672716;-0.017618535447616157;0.6478166423608637;0.1150127708411719;0.1877794843129572;-0.006098559912629087;0.10214207651704754;0.11310790462159082;0.0925698606966471;-0.04282990345179738;0.42045970672104804;0.045953941301850376;0.20130286691229493;0.0028476184994714604
A;-17.6;0.2746092316282225;-0.04909441362717959;0.2592344849462419;-0.0169784084213227;0.6484005600292634;0.11660780067780441;0.1907031180763683;-0.005954565162872516;0.10322472060294052;0.1156703621507118;0.09341143185757109;-0.042590919804133986;0.4194068352851239;0.042565066190243916;0.19785651067886445;0.0007420326374181219
A;-17.5;0.27745706661935055;-0.04890776875796443;0.2598468502545207;-0.01640652924321717;0.6489948340573812;0.11836506495777344;0.19363664027221672;-0.005762447262688486;0.1044862223354589;0.11844096345378774;0.09435100202077187;-0.04219679944041688;0.4182140160141916;0.03903973410527928;0.1941892053629396;-0.0014689517133068541
A;-17.4;0.2800988488090099;-0.04871322729958982;0.2599840047974328;-0.015926549925477484;0.6496197649147601;0.12025545251733094;0.1965160014686722;-0.005537318402414559;0.10577855459349073;0.12132816471084307;0.09534436018196743;-0.041653183310207065;0.4168148656516528;0.03541516866690486;0.19025462842401042;-0.0037709107214705107
A;-17.3;0.2825468650048575;-0.04851132886045262;0.25970329834137895;-0.015521957817941967;0.650264441693811;0.12223039177655393;0.1992973350868288;-0.005296047691537797;0.10710624073089814;0.12429017529668407;0.09641420266271075;-0.04097644881496787;0.4152855107173756;0.0317223050775326;0.18612879791697334;-0.00611190263009731
A;-17.2;0.28482187735384623;-0.04829861653983336;0.2590803734664784;-0.015167929368647082;0.6509161099083354;0.12423349115346904;0.2019286410923744;-0.005059353856173177;0.10849593431628846;0.12728820228838122;0.09760227542839259;-0.040183992438799776;0.4137303233687688;0.02798859235532114;0.18191170451621075;-0.008427748032354243
A;-17.1;0.2869000344320447;-0.04808601481126562;0.258152520963844;-0.0148473328490204;0.6515063773774404;0.12619776548564654;0.20429148614201753;-0.0048540792968414515;0.10980382451451254;0.13016818393833685;0.0988769543372083;-0.03933291698217212;0.41214845100654207;0.024251191171472453;0.17764092494055783;-0.010673975195596208
A;-17.0;0.28877133645994757;-0.04788047102651949;0.25697919001344416;-0.01453922128311591;0.6519578698699074;0.12805016377072054;0.2062761362824137;-0.004704241986198676;0.11091298262542126;0.13278223181838977;0.10020840762331187;-0.03848385018606415;0.41056208007791817;0.02055495783379646;0.17337907455384183;-0.012800522829042427
A;-16.9;0.29037727947733005;-0.047695779460076526;0.2555263055527657;-0.014248922750854875;0.6522477802825388;0.1297233043987438;0.20777471932078284;-0.0046335519494571376;0.11170371903608789;0.13500656158070545;0.10157586492459866;-0.03766222637554539;0.4089642417384045;0.016940171214802735;0.16915940899158954;-0.014757472795248638
A;-16.8;0.2916503642813115;-0.04754862511710023;0.25373810775585914;-0.013991688409468184;0.6523627611009574;0.13116044803496818;0.20869350723538505;-0.004659610993319019;0.11205619429777958;0.1367322477535573;0.1029469654398528;-0.03688482452848196;0.40732258402050725;0.013446299434706876;0.1649922114467426;-0.01650787085775729
A;-16.7;0.2926438133355962;-0.04742489167105468;0.2517061612951442;-0.013758059267735767;0.6523186870288498;0.13230814760775522;0.20907240611454525;-0.004777449527696653;0.11214344100859985;0.13801466728009926;0.10436630311293196;-0.03614014605415916;0.4058028294630398;0.01013436024551262;0.16103590257144973;-0.017985471358289873
A;-16.6;0.29342122535131954;-0.04730725692320892;0.24952090284738537;-0.013543142900522165;0.652149362272744;0.13313254369191285;0.2089934469524486;-0.004973315585231397;0.11219624240952952;0.13896681999911742;0.10589021574265436;-0.03539737035199009;0.4045758350280797;0.0070534638031301;0.1574454636894862;-0.01913470620791058
A;-16.5;0.2940181630396852;-0.04719607538362802;0.24724532774463925;-0.013351797997036119;0.6518469843643502;0.13363564592599197;0.2085151991753671;-0.005226775856376875;0.112297928066599;0.1396460296248654;0.10749426692066641;-0.034651921996086354;0.4036580228422926;0.004234320495082544;0.15424371056662134;-0.019963170968857025
A;-16.4;0.29449246457298095;-0.04709011151166398;0.244977865803368;-0.013179774871584282;0.651395074056921;0.13382908961166273;0.20771143931239688;-0.0055158304764626465;0.11252891026018663;0.14011229302723938;0.10914696433609841;-0.03390935567868458;0.40306536378986046;0.0017059530232388376;0.15144613443361044;-0.02048743828797117
A;-16.3;0.29479381870316135;-0.04700659389213446;0.2426458144871556;-0.013057210550745157;0.6508000299341781;0.1337624351298452;0.20661498542458956;-0.005827438694161691;0.11284310174565171;0.14041511600178613;0.11080303214694867;-0.033143659536365444;0.40265468356310685;-0.0005711834225001766;0.14894010155489312;-0.020760666435905017
A;-16.2;0.2948573513986372;-0.046968294907056896;0.24016196767241782;-0.013015253876334176;0.6500631645822775;0.13348976779707056;0.20523867819758745;-0.0061520205058711586;0.1131398336320506;0.14057547744659904;0.11240091800604216;-0.03233769394992747;0.402244325294981;-0.0026429381080450565;0.1465809402175653;-0.02084569270499248
A;-16.1;0.29476371726986095;-0.046965672131951575;0.23767070720444938;-0.01302020685262617;0.6491778483014012;0.13300768325062373;0.2036390254719418;-0.006491984492556391;0.11346813562688796;0.14061727009868985;0.11394743495728596;-0.03151609459243121;0.4019130881219444;-0.004487470925452541;0.1444287399149965;-0.020723445654884598
A;-16.0;0.29458945089531996;-0.04698433113110423;0.23530460672047981;-0.01303950969051626;0.6481465671756773;0.13231274650510705;0.20187216368527028;-0.006850165968991684;0.11389148047065778;0.1405735202693188;0.11546174949219631;-0.030697122853134973;0.40174930178043233;-0.006086361063101897;0.14255143964008588;-0.020371028344766673
A;-15.9;0.29442540602236633;-0.04701864681560819;0.23324092173226185;-0.013038098712536028;0.646946902517451;0.131379361352012;0.19995969587454332;-0.007221845443692754;0.11443488793497636;0.14041265792405233;0.11691326587389952;-0.02993367840701122;0.4018315338610037;-0.007374223222366583;0.14101528421130505;-0.01977096354675667
A;-15.8;0.2943771911048212;-0.0470565602974764;0.23167383124736218;-0.012979651445772511;0.6455495971826946;0.13017329659670818;0.19792882704043646;-0.007596541735386486;0.11516128160261119;0.14011089358510365;0.11827623704783882;-0.02927866215008057;0.4022677671465158;-0.008269570438853346;0.1399106824069476;-0.01890174397761557
A;-15.7;0.29434732681142806;-0.04710197054206011;0.2304308707036954;-0.012923043016011215;0.6439883276809374;0.12875526940420468;0.1957974103748581;-0.007944549621155206;0.11606791070316447;0.13975195041633715;0.11951407362432473;-0.02867462839598678;0.4028787860939642;-0.00881788610096268;0.13910010632469538;-0.017836890474201672
A;-15.6;0.29418493239711085;-0.04716979720002268;0.2292450600213377;-0.012957182561062153;0.6423048587083294;0.1272083891005944;0.1935828468278029;-0.008225625818927274;0.11714194352481744;0.13944791140609936;0.12057396074948731;-0.028035103041385012;0.4034013377214911;-0.009089974536196088;0.1383818145571688;-0.016680248214363758
A;-15.5;0.29386205347630123;-0.04724036583709723;0.22802085923722337;-0.013125072517218506;0.6405040082789571;0.1255748855933403;0.1913633649332369;-0.00839997194703268;0.11853715596291148;0.13934951768463955;0.12147061153076158;-0.027289388266319436;0.4037882272564668;-0.009105693948961768;0.13771779045925459;-0.015481295276360552
A;-15.4;0.29332711385644905;-0.047294444400349356;0.22661814385268952;-0.013478752451844711;0.6385953034888495;0.12391187941800963;0.18922112401737912;-0.008428261565900375;0.12039467833921835;0.13962427477375883;0.12222295446483897;-0.026352298453847567;0.40395774422903274;-0.008908828120940404;0.1370413251306999;-0.014300562131966732
A;-15.3;0.2925471419376875;-0.04735536552748343;0.2249717087489571;-0.014066412928082306;0.6365620460107587;0.12225265135255658;0.1872178768212862;-0.008269056944645747;0.12279636966120044;0.1403684871177906;0.12277696038402117;-0.025178953655001113;0.40380231089191887;-0.008502250743991357;0.13627693052101675;-0.013199258495337984
A;-15.2;0.2915330237528657;-0.047449668107827137;0.22310263302715472;-0.014909175866524071;0.6343705062160152;0.12060537347144162;0.18540703883429344;-0.007893232546726026;0.12580595061666988;0.1416294146167909;0.12308095442199204;-0.023757542238547313;0.40327783129125394;-0.007864153581496502;0.1354002142331724;-0.012210890557771359
A;-15.1;0.29011639993797433;-0.04761251949756207;0.22074813755792733;-0.016079394267734193;0.6320545641884451;0.11906428057445395;0.1837798381047775;-0.007288347423615171;0.12925569079101928;0.14344912534735865;0.12306176988479281;-0.022030682788563127;0.40205995723613586;-0.0071053289236242545;0.13416080240731687;-0.011438407666101602
A;-15.0;0.28813312557396253;-0.047886852192028595;0.21767307601522856;-0.01763497844081563;0.6296657490766716;0.11771511287752467;0.182299948319957;-0.006456758029565579;0.13291231431296224;0.14581543791339646;0.12263855241634367;-0.019966680599523;0.39982924940748066;-0.006332078322327073;0.13231224632331395;-0.010969923688755268
A;-14.9;0.2856400746058838;-0.04826653039373019;0.21399405585208098;-0.019517794257487564;0.627191183224713;0.11653497241440203;0.18094735982847876;-0.005437165300566926;0.13667067783766518;0.14862396452407434;0.12184081130467642;-0.017625782134048862;0.39667013818122143;-0.005538240847800413;0.12991926472030546;-0.010758048361544148
A;-14.8;0.28271592847464055;-0.04871539412934456;0.20984883339214033;-0.021652024801370517;0.6246331887945217;0.11549866751489213;0.17970022350358983;-0.004276614560517755;0.14044249531132458;0.15177294050406998;0.12073742440188387;-0.015073594852916372;0.3927251065906965;-0.0047183585415420115;0.1270834744495165;-0.010738486268441427
A;-14.7;0.27954434654982707;-0.04923605431258937;0.205595697829546;-0.023926914413965106;0.6220176421889186;0.11451144658993195;0.17852857755267482;-0.0030215966551867535;0.14418946743945094;0.15507768211537476;0.1193471204450667;-0.012445507357273122;0.38827904315479067;-0.0037516804203030496;0.1240289538773901;-0.010791465619633067
A;-14.6;0.27634925473547556;-0.049825183699212516;0.2016515196541251;-0.026216215910780827;0.6193495542898003;0.11345723322042178;0.177409744763809;-0.001719158868310311;0.14792043458486237;0.15834726394852106;0.11770564604496805;-0.009887911794575488;0.38368974742325057;-0.002492513487359238;0.12103547409930338;-0.010777924515572801
A;-14.5;0.27309673238585686;-0.05040278889845595;0.19792245853015722;-0.02851633937930176;0.6167387647820655;0.11239676921142938;0.17633791484667238;-0.00037705314891822717;0.15160935503440032;0.16163695742925976;0.11587586773439043;-0.007381864147169792;0.3789282968879957;-0.0009990307515421737;0.11805075206013449;-0.010721227072602924
A;-14.4;0.2697250370665034;-0.05088937436534513;0.19427306773545794;-0.030840202071135137;0.6142877225600774;0.11139708747050947;0.17530430243729045;0.0010021333571417212;0.15521742339622335;0.16501772767424572;0.1139017456329118;-0.004897031661267426;0.37391709162850595;0.0006600319134859589;0.11498807898055441;-0.010660040120606062
A;-14.3;0.26623694390929153;-0.05122149402445486;0.19064692896011726;-0.03316688328838602;0.6119249085467872;0.11047534198668907;0.17431919654488026;0.0024026486751553833;0.1587534824722152;0.1685175073731966;0.11188099200576593;-0.002413990054782378;0.368698787729858;0.002425070309054256;0.1118601890064449;-0.010597996511841012
A;-14.2;0.2626126861373046;-0.05133120687766057;0.18694888979594915;-0.03548393372923786;0.6095488310305103;0.10965540411638042;0.1733971234731848;0.0038077172061143916;0.1622035251389652;0.1721766103381308;0.10991118378017653;9.900694592490655e-05;0.3632815522191073;0.004213906065557493;0.10865856763456938;-0.010547306488479569
A;-14.1;0.2590301131694699;-0.05125370613405922;0.18356951040060498;-0.03768855776417013;0.6069913091367487;0.10877541408173874;0.17249311419060076;0.005163222158447445;0.16546975792839735;0.17575636422591967;0.10794876028650066;0.0024895850826891497;0.3579278631758902;0.006163755241598734;0.10562574931308832;-0.010373062412395218
A;-14.0;0.2557475385544674;-0.05108585870296345;0.18107949640376397;-0.039635612277834076;0.6040391579260473;0.10760783834647802;0.1715448276057392;0.006395657470126936;0.16841676080463797;0.17889086378198127;0.10591916747802463;0.004537744778533415;0.35300794644045963;0.008481059944933422;0.10310504815223032;-0.009882740461010231
A;-13.9;0.25282064478972055;-0.05082246839211302;0.17966341035624678;-0.041269645077785855;0.6006529695157028;0.1060872420753296;0.17051837442538953;0.007457763864860967;0.17084929680471495;0.18143714553453316;0.10377394776636314;0.006149064620990741;0.3485904060556724;0.011204890635834852;0.1011877125837104;-0.009000383633679832
A;-13.8;0.250323200759784;-0.050464527508969015;0.17955223474168192;-0.042527944001011786;0.5968324257981862;0.10413921256798742;0.16937505414131815;0.008300952014706597;0.1725695253930376;0.18323412212320722;0.10144960106804232;0.00721170684190553;0.3447666014079167;0.014397942618460169;0.09998456979232884;-0.007637295703078584
A;-13.7;0.248444627693998;-0.05015782202925512;0.18114112373949376;-0.04327992295465988;0.5924763382418011;0.10163956533768781;0.16807313513202837;0.008851557325114667;0.1734062573204056;0.1839338076835335;0.0989460804114283;0.007561304782826017;0.3418065075124501;0.018162323699034477;0.09973108947621234;-0.005651635129429344
A;-13.6;0.24732236897421034;-0.050031071516858816;0.1846898194877059;-0.04342480492934597;0.5875373243081286;0.09852381637147634;0.16659359766430382;0.009053860645907408;0.17324162801742482;0.18327580577908642;0.09630028399829935;0.007089255983721898;0.33991141158451854;0.022546184794155488;0.10058933586211294;-0.0029485807527176444
A;-13.5;0.2472624358514326;-0.050207839333296755;0.19080402087553094;-0.04280792012255219;0.5819553482495299;0.09458831777999288;0.16488935482802458;0.00885131648917925;0.17207951846199154;0.18091162525340843;0.0934812822964127;0.0055809665237729345;0.3395382400340514;0.027786756294882142;0.10293365327134563;0.0006623093838995509
A;-13.4;0.24855585263754731;-0.05081656445052163;0.20003056981213085;-0.0412920691772678;0.5756373591665067;0.08963700888765924;0.16291426117956065;0.00820167494766344;0.16999026179002275;0.1765261875059292;0.09047215669995398;0.002848683128462759;0.341127889449788;0.03411116532445568;0.10711143883082297;0.005345056978534268
A;-13.3;0.25107107785847327;-0.05172892574830579;0.21204103922019213;-0.038964729620669214;0.5687765404632985;0.08381486916238923;0.16072856682737835;0.007160866143736788;0.1671445626214646;0.17041806222233014;0.0873393866922558;-0.0009691322912659395;0.3445143241570805;0.04140438949276426;0.11294469716557676;0.010978446717355705
A;-13.2;0.25457647620648816;-0.05270952488520986;0.22631667912158637;-0.03597255817157574;0.561578532794111;0.0773141638338497;0.1584017770018158;0.005809196929876137;0.16374214891552996;0.16305141820955948;0.08414352069287404;-0.005664167694200084;0.34939386431766395;0.04949136239247731;0.12014616634609199;0.01738161545380712
A;-13.1;0.25880865796885577;-0.053708566446736716;0.2422156101409566;-0.03246109379578721;0.5539627718524395;0.07032091491407444;0.1559644993141025;0.004212898651849262;0.15993193235678715;0.15472631292074746;0.08099765988623212;-0.01100607976347634;0.3554031560000348;0.05812377746815889;0.1283588514707401;0.024331526748904153
A;-13.0;0.26343795559918215;-0.05465491337215034;0.2589633515154256;-0.028607515396870786;0.5458796123122437;0.06307459650145586;0.15346204487690351;0.0024486039606803622;0.15585252357791268;0.14581646494928346;0.07802714431122956;-0.01671797086771054;0.36208188181996737;0.06699556079433555;0.1371469406696274;0.03156502521563498
A;-12.9;0.26836779918144305;-0.055337111414397455;0.27638887806506773;-0.024479598261437863;0.5371064604219646;0.055524019124252755;0.15084743257949484;0.0005355540437153028;0.15154466687166646;0.1365067571399028;0.07519040690999271;-0.02274813741434667;0.3693279542496941;0.07607834892014886;0.14644497090275477;0.03903713578912549
A;-12.8;0.273562877176333;-0.055592155712054;0.29444510700840965;-0.020111857270981304;0.5274009624120594;0.04757935561284543;0.148062424927639;-0.00152121906797964;0.1470278394310348;0.12688950137728305;0.07243604816532997;-0.02909114163178006;0.3771200537044608;0.08538826313701975;0.1562566789227895;0.04674155866732521
A;-12.7;0.2788581536420285;-0.05516091458994521;0.3128232841150449;-0.015610478236242953;0.5170985871644603;0.03940361538714443;0.14518593588540196;-0.0036670561510288024;0.14238839093636013;0.11737841123395443;0.06976794908956976;-0.03561363981309085;0.3852482319626209;0.09481943747250843;0.16641867193360238;0.054583965444704674
A;-12.6;0.28411915647607544;-0.05377940251237723;0.3312794542952848;-0.01106879838458874;0.5066746881768458;0.031174941975030235;0.14232142138974924;-0.0058451770216312315;0.1377320982042286;0.10839843096401958;0.06718860955558772;-0.042195324564648806;0.39353975276577735;0.10428845180032842;0.17679534922643647;0.06248672188172244
A;-12.5;0.28920260908535345;-0.05159611956505383;0.3493592091781522;-0.006568749546424835;0.4964842685502787;0.02318715706815122;0.13958658534063662;-0.007991901575863825;0.1332318919562896;0.10013555925929674;0.06486390188795402;-0.0486474580625762;0.40175435309717744;0.1135794235412384;0.1870995643635056;0.0702625923539475
A;-12.4;0.29392579322326706;-0.0488933499648907;0.36646076901114577;-0.0022115044432926556;0.48698603272416885;0.015834887481608773;0.13713993447702877;-0.010023916487596374;0.12912659733275123;0.09277432271678254;0.06303010498191705;-0.05471900564794108;0.4095833805438447;0.12240319464324534;0.1969487127079137;0.07766088396883952
A;-12.3;0.29828098676099524;-0.04578923115518818;0.3824393995654949;0.0019810010698138036;0.4784117029878983;0.00923111121489506;0.13504788830183245;-0.011899839282446756;0.12561642986914057;0.08636552788332574;0.06178187673897598;-0.060330500382303365;0.4169808415287708;0.1306913983277842;0.20622545054982167;0.08459153105312822
A;-12.2;0.30225871327649734;-0.04245312118617561;0.39713226484239417;0.005988789909326497;0.4708404470434133;0.0034492226871993825;0.1333482613069048;-0.013583833540295132;0.12289239172105981;0.08088747637919469;0.061216949947656224;-0.06540555731666309;0.4238938789964728;0.1383694677023375;0.21480074951009165;0.0909566430635067
A;-12.1;0.30563706416022707;-0.0390843498911746;0.4099223875620437;0.009672971989680867;0.4647750929724357;-0.0011561338760355255;0.13220340156468802;-0.014971535108073253;0.12127164150095326;0.07662678681089696;0.061517014749285864;-0.06967263189298467;0.43000475817342254;0.14518493060692017;0.2223051081248152;0.09651314650346077
A;-12.0;0.30820105430868217;-0.03581669411339283;0.42026861085565426;0.012899071069655488;0.46060787666349634;-0.004310748063598435;0.13173949333827317;-0.015972708150698622;0.12101208199548663;0.07385066670670892;0.06280676762146833;-0.07289696498843623;0.4350235325178944;0.15092913834619726;0.22842625005710993;0.10105992059272673
A;-11.9;0.3096410372826943;-0.032958346479791345;0.42735986276071236;0.015510899717785076;0.4582194193730885;-0.005752381243788518;0.13200359041248055;-0.016516441302020235;0.12223675992208549;0.07264509316083356;0.06527357104471229;-0.07479584813654616;0.43848829007821766;0.15525426556779842;0.23269103236978217;0.10430584255075548
A;-11.8;0.3096481513705156;-0.03081981005725809;0.43041659396990695;0.0173570558624343;0.457461836655477;-0.005219416101509555;0.13303068563643805;-0.01654365339222208;0.12499853140286843;0.07307738131507513;0.06908489726824826;-0.07510551441207969;0.43994969107474047;0.15782271867994146;0.23466308895230725;0.10598432535949742
A;-11.7;0.3082734047253679;-0.02933176572489926;0.4296802987844712;0.018474518539072005;0.45763507516685353;-0.0030592695649906965;0.1346303685307284;-0.016123978097661196;0.12904176305220216;0.07486977563534203;0.07407150876878474;-0.07397337809515125;0.43949717038256186;0.15875459475316656;0.23450943524089718;0.10621841108478502
A;-11.6;0.30568494773313204;-0.028318455094247685;0.4256847612708127;0.018964036532876483;0.45790716208808435;0.0002398582500697799;0.13655691425768657;-0.015366297608638169;0.13400499634860952;0.07764864856945874;0.07998794391317945;-0.07166601501441527;0.4373713676148592;0.15828655766649002;0.23255942339372393;0.10523470145066205
A;-11.5;0.30202683848523826;-0.027676135196281537;0.41891511770600265;0.018890302779527968;0.45840783513972333;0.00457256842483833;0.13877040907462002;-0.014322812516654793;0.1396763710030119;0.0813581216565904;0.08665699427985027;-0.06836113364360397;0.43384167161664644;0.15663203840818518;0.22917086215239513;0.103251057880825
A;-11.4;0.29750548491519346;-0.02724845320263003;0.41001961975503076;0.01834718946599123;0.45933214897696784;0.00979783628921349;0.14122366363874317;-0.013057315731965113;0.1458323025178746;0.08593790593720341;0.09386025762033243;-0.06429069901388651;0.42926783041049044;0.1540753976938345;0.22479228573312604;0.10054185296376983
A;-11.3;0.2922690721908823;-0.02693432524886674;0.3993025822153202;0.017409331869099764;0.46076320879356275;0.015906267468062563;0.14390258674934064;-0.011608009400493335;0.15231597357696258;0.09135557279091744;0.10154645812198707;-0.0595738319367084;0.4237932162625766;0.15070445478897598;0.2195813125743591;0.09720137393446504
A;-11.2;0.28641674974206954;-0.02669582685812344;0.38692876980663327;0.016125398317978545;0.46288537437965827;0.022984171835118694;0.14682790753442587;-0.009993178595621544;0.15902743458898927;0.09763220586270682;0.10971177991459771;-0.05427055151026172;0.4174918500669409;0.14654625676616173;0.21361320273820672;0.09326995564280005
A;-11.1;0.28013592189515446;-0.026367101060668308;0.37339417377497075;0.014606202263727885;0.4649486378806095;0.030602779665034774;0.14976129509043878;-0.008308150585535579;0.1657160640820714;0.10443396656056159;0.11814929264088361;-0.04862557745443408;0.4105643715545966;0.14181076670930515;0.2071169188094042;0.08891983360948719
A;-11.0;0.2735813441136028;-0.025794102497203708;0.3591338338038922;0.012953565785417842;0.46579769034121454;0.03816750329342633;0.1523933036840981;-0.006658884627479544;0.17210645591647644;0.11129180651820603;0.12663331199871677;-0.042885754087400696;0.4031628264267191;0.13669457244265604;0.20027574220099642;0.08430531974069444
A;-10.9;0.2667394189589112;-0.025064623188205237;0.34432948723858847;0.011162833979119213;0.4651010362268206;0.045477747665439106;0.1545971746880337;-0.0050829517612169806;0.17806734584145822;0.11802130707769676;0.13498378439580108;-0.037140854959563874;0.39538853682837605;0.13132929976259078;0.1932766414828716;0.07955568833728122
A;-10.8;0.25955697997974636;-0.024329192251244747;0.3291604957224855;0.009209165602920955;0.46242753983609775;0.052265744066736675;0.15622088764476083;-0.003621955214693884;0.18344199170748698;0.12437391691267563;0.14297464312195987;-0.031483546362647497;0.3873503936390108;0.12587153087279046;0.18634980887562957;0.07483016655103913
A;-10.7;0.2519209889307057;-0.02371599492177978;0.3135211918699661;0.007049340422417449;0.45669446755737186;0.0580357024825946;0.15708682919414163;-0.0023117844246263175;0.18804869058532114;0.1299012137219211;0.15049031957055256;-0.025938182960224543;0.3789746897454245;0.12032589392945692;0.17950658248325324;0.07015411553921092
A;-10.6;0.24371236979224564;-0.023380387804859293;0.29728285537526233;0.004630809051671347;0.447043644682081;0.06237560847678991;0.1570830043636411;-0.0011724018629084565;0.1917361827705164;0.1342155717361999;0.15744634506806168;-0.020501148260065882;0.3701964394677928;0.11468241830634662;0.1727679269513206;0.06554778514364878
A;-10.5;0.23494660131798217;-0.02340595549176583;0.2807866167141382;0.001981677769247403;0.43207857030046604;0.06450508047707215;0.15588965383023146;-0.00030897539893093295;0.19413593143406105;0.13662838958392043;0.16353800685217737;-0.015387989533573898;0.3611519575456379;0.10915703991689618;0.16641439492862797;0.06122505683038493
A;-10.4;0.22569220346667307;-0.02382209931255086;0.26442628503905796;-0.0008451585722062394;0.4104825091755576;0.06365953158496507;0.15321162845551473;0.00017404796023701152;0.19489524600460606;0.13647228878924134;0.16848814436867607;-0.010827538514537105;0.35199661879517596;0.10396620328204875;0.16071796049617149;0.05739203224527012
A;-10.3;0.21608468381846402;-0.024711202342455607;0.24872083799066813;-0.00380460314584119;0.38293129556047795;0.05990773948610406;0.14912945541345568;0.0002591897746204719;0.1939339228098258;0.13377282018306924;0.17213201440224954;-0.006954219388539462;0.3430749798970816;0.09935779988813076;0.15611090144178053;0.05429614352187895
A;-10.2;0.20630479500957621;-0.026131305749624634;0.23424319000099636;-0.006835830541842558;0.35071272913789386;0.05362632474920481;0.1438042761674907;-5.3387409656435736e-05;0.19125476835588417;0.128807774350564;0.1743393857522215;-0.00388997821673176;0.33476314234384974;0.09558278460553082;0.1530246225210311;0.0521789344721757
A;-10.1;0.1964959929065626;-0.02800568095623368;0.22105307757106862;-0.00989632910868865;0.31490222630089615;0.0452324532481847;0.1375200854225227;-0.000698949392421655;0.1870645081705512;0.12192707376679812;0.17528934482098332;-0.001569667964162802;0.3271240969994793;0.0925842794252294;0.15141633416449474;0.0509730401020394
A;-10.0;0.18677864738560435;-0.030226835638814675;0.20903931118276609;-0.012958416986907473;0.2768978177461887;0.03536604966074175;0.13065159851765262;-0.0015762585823932973;0.18169640429491984;0.11368326254927785;0.1752709558466994;0.00015744466390232859;0.32014095199155634;0.09020898748065376;0.15110684714254952;0.05051526901965131
A;-9.9;0.17727485121611108;-0.032686292830582664;0.19823072619597804;-0.015961161466091722;0.23766596757146136;0.024659782047164125;0.12328383308887014;-0.002662194483638247;0.17530893000224912;0.10456546306218906;0.17438583284160888;0.0013123258595089116;0.31374279103484204;0.08838744475638372;0.15189491459520754;0.05069787235071477
A;-9.8;0.1680792079412714;-0.03526215818871936;0.18855732397065883;-0.018850810109462657;0.19788620452141598;0.013653166848272447;0.11546040564256055;-0.003936868014739581;0.16805216311229676;0.09498820662347285;0.17275512720938477;0.0019313896241091033;0.3077855966944385;0.08700551194773154;0.15349299672138017;0.051367375912948265
A;-9.7;0.15920593815051243;-0.03791300617496218;0.17992176261830295;-0.021628192972230398;0.15889795691540126;0.0031357810316126056;0.10738152106260723;-0.005333894976853104;0.16020112631291383;0.08562504290898332;0.17050453744183422;0.0021287124160074278;0.3022527285780858;0.08598818004195752;0.1557829503096232;0.05243408595459775
A;-9.6;0.15066338494643738;-0.04062324432059006;0.17228258049135048;-0.024295281301539573;0.12194963938671882;-0.0061716102466238265;0.0992139159223897;-0.006799896373505643;0.1519854958727802;0.07708581298381989;0.16771318579485497;0.0019910835512245706;0.29715917817878124;0.0853006749575167;0.15870639151371801;0.05385028501024802
A;-9.5;0.14245364551645223;-0.043338645390647024;0.1653598582262965;-0.026873493835308127;0.08736320764810995;-0.014211447346521133;0.09122453483175508;-0.008249729012480334;0.14363929284993926;0.06947027334572153;0.16463802882597509;0.0016821983965360499;0.2924312172543546;0.08477005321279285;0.16208240621447334;0.055452018396710656
A;-9.4;0.13459346629303215;-0.04600956215435059;0.15888208223859535;-0.02938710542923717;0.055262326900781034;-0.021158856858572994;0.08374536597004889;-0.009586290564714384;0.1354007169392285;0.06270717072616971;0.16157348916130418;0.0013779925626311584;0.2880367401487074;0.08422293285148297;0.16577755410785633;0.05708405135117456
A;-9.3;0.12722739758945445;-0.04858807217253913;0.1529922978522581;-0.03177280059266563;0.025542133817836432;-0.027217780759549948;0.07681982900792295;-0.010819327007219659;0.12723423237360698;0.056583334524485496;0.15858181344498654;0.0010262101007010305;0.28397970390193006;0.08365647371121132;0.1697425151492119;0.05872401555845741
A;-9.2;0.12056518783239878;-0.05101130602536008;0.14793853531650425;-0.03393625004509748;-0.0020452296471490383;-0.032715678273978366;0.07046667069009005;-0.011975764019459989;0.11905089720101969;0.0507573124961489;0.15571130430214883;0.0005247842056410601;0.28027733041288405;0.08309133936246038;0.1739362757092352;0.06036393841777832
A;-9.1;0.1148095211765614;-0.05323907043702403;0.14400816583502885;-0.03580923308520578;-0.027158090979484628;-0.03786876860282429;0.06495148432685971;-0.013019228967495744;0.11095398359233755;0.045075703686580315;0.15307785065512894;-0.00013995475180894612;0.2771216062985784;0.08258185163102394;0.17849305039948893;0.06204631964280205
A;-9.0;0.11016891901782899;-0.05523215980757956;0.14153828705188776;-0.0373137173716136;-0.049355868808304115;-0.04278764128754475;0.06049654196707621;-0.013925842343539774;0.10303663721502576;0.039460878799167265;0.15075582318889844;-0.0010050792554414656;0.27470313025556536;0.0822064355128529;0.1835462621235603;0.06382939210627048
A;-8.9;0.10689223740422693;-0.056893870603123675;0.14068162312811516;-0.03836515417902353;-0.06831004540411001;-0.04767502687209979;0.057419504774402386;-0.014636380147035721;0.09547182096891293;0.03374754621859477;0.14897867922880917;-0.0020434604168136916;0.2730975369206823;0.08190426917368399;0.18903561009398695;0.06563072122804647
A;-8.8;0.10517313141989182;-0.05813408544485554;0.14148931867516512;-0.038902497475767905;-0.08371309499787383;-0.052694650032586;0.056043213052740404;-0.01507914342411798;0.08847789193739353;0.027827611727233803;0.14799099323975132;-0.0031870702054018762;0.272353319583841;0.08158654446538516;0.19487113154796742;0.06734518716476212
A;-8.7;0.10510927642082124;-0.05888450815471047;0.1440243316057418;-0.038850013895316504;-0.09557264131182386;-0.05764565147402134;0.05619993463197748;-0.015300850982169933;0.08201374925041627;0.0217714286666002;0.14776410117616337;-0.004515702619047435;0.2722941053633656;0.08121611977670495;0.20078324830637562;0.0688850379769037
A;-8.6;0.10672339247611151;-0.05909353995143052;0.1482566159590707;-0.03815290866596821;-0.10400965181259336;-0.062221854435926316;0.05759091703668995;-0.015371785186491849;0.07597507958799399;0.015711423319624718;0.14820982246567602;-0.006120921917647126;0.2726645745913454;0.08074606139393126;0.2064464716600133;0.07015323846829569
A;-8.5;0.1098363848363133;-0.058799826386153775;0.15401588645346398;-0.0368599393377651;-0.10923229897073639;-0.0662705339377998;0.06006286990741305;-0.015305515567616279;0.0704116133521766;0.009827778065308879;0.14922361418970873;-0.007959019229960784;0.27338318089570124;0.0801808524193035;0.21179230203758126;0.07114959923834197
A;-8.4;0.11418208463866719;-0.05807936539110781;0.16108575710376383;-0.03505393148930347;-0.11155464352512523;-0.06964119129079949;0.0634025250221415;-0.01512672947525795;0.06533409661819489;0.004319185185988728;0.15064403148714448;-0.009980794413913863;0.2743774146494464;0.0795540061942317;0.21680943473435066;0.07191458575332699
A;-8.3;0.11952873456802915;-0.056992572113535145;0.16913769694096648;-0.03282996187495213;-0.11109755026269375;-0.07221968776058318;0.06751126981048983;-0.01482977537386665;0.06074573277700657;-0.0006873751540257267;0.15243875409017224;-0.012107582720510934;0.27557283174285674;0.07882738707137227;0.22147584060033987;0.07243509463486975
A;-8.2;0.12563731089011987;-0.05560927565850382;0.1778359228451989;-0.03029598092091379;-0.10798778366611972;-0.07398296408978289;0.0723653320638773;-0.014390019748045102;0.05668716058293144;-0.00510672347333041;0.15460673884361872;-0.014232032685076001;0.2769497510454826;0.07796762232161014;0.2258333779399384;0.07271320854270513
A;-8.1;0.13230642629609024;-0.05399318025674171;0.18700647269903703;-0.02751584598534995;-0.10254933729226579;-0.07485949012991511;0.07768810787485592;-0.013870331747280806;0.05296637626275491;-0.008911005785771087;0.15701426652906922;-0.01638542291292855;0.27839046047447047;0.0770035373984479;0.22985225075719895;0.07278815531497984
A;-8.0;0.13937728125437032;-0.05219287702642572;0.19651270904899054;-0.024535439262665326;-0.09508295803026878;-0.07477721875683785;0.08320217362769;-0.013337403412067239;0.04938079521948224;-0.012092949920958107;0.15953548405825477;-0.018618539423795877;0.27976929542554396;0.07596008460619363;0.23347909116602417;0.0726881979418148
A;-7.9;0.1467073332005553;-0.05026232023872823;0.2063211121375741;-0.021400439104279023;-0.08601802619711707;-0.07391864080773414;0.08887274602012751;-0.012790355599393788;0.0460066641516621;-0.01467708677362256;0.16208908064340152;-0.020878324545930527;0.2811488515364162;0.0749056206700407;0.236814607064607;0.07248739551266392
A;-7.8;0.15417402500558697;-0.048246359987788257;0.21644977584179947;-0.01814195205269331;-0.07588739893877694;-0.07253017016698737;0.09467553158753184;-0.012225586287968104;0.042968154070903264;-0.01671417336042036;0.1645754060969066;-0.023112443397751092;0.28260376013410893;0.07392022483514138;0.2399500489834674;0.07226146873087624
A;-7.7;0.16171486672484048;-0.04614638627830825;0.22675762775025843;-0.014787724888944087;-0.06480465413000036;-0.07064524468677269;0.10069350556890488;-0.011591475300285259;0.04048531879336148;-0.018139040596628186;0.16701838545872097;-0.02522687972737414;0.28415819659810193;0.07296758739596765;0.24285793409721002;0.07196922209735623
A;-7.6;0.16926350649787558;-0.04395601207599564;0.23704878596356682;-0.011369830380579149;-0.05285442059053147;-0.06827747234433024;0.10706129292303634;-0.010811994859138974;0.03886464618292573;-0.018847462924020286;0.16947206475234253;-0.02708939723472592;0.28583663260120096;0.0719808227135621;0.24548626534750406;0.07153898833578709
A;-7.5;0.17671200290554023;-0.041674297768951485;0.24718485850336547;-0.007902554158380815;-0.04055118113303391;-0.06548100137154456;0.1136071361203903;-0.00990233733601431;0.03818264364622381;-0.01884792396610102;0.17181182463045816;-0.028693265135933843;0.28750684112020797;0.07093517679605421;0.24765461564082236;0.07091770689564458
A;-7.4;0.1839390271174255;-0.03930215680909521;0.256979708612762;-0.00440791266939522;-0.02835756349488594;-0.062255612586778364;0.12012208801572721;-0.008885993871817766;0.03846463501502517;-0.018139467761776995;0.17391255700796657;-0.03004402167344855;0.2889994103939979;0.06978936350177567;0.24915604687689374;0.07003945709323589
A;-7.3;0.19073228636039619;-0.03687664138011759;0.26618155444296;-0.000948288119953844;-0.016865188612150916;-0.05869213935555018;0.12653742285886627;-0.0077347963693836785;0.03992866197073652;-0.01665244719680614;0.17569327639901847;-0.03102335581454363;0.29025164945279935;0.06851361486459995;0.24990930249353915;0.06887233387108016
A;-7.2;0.1968691202991597;-0.03444591481693271;0.2745602155840515;0.002409342960843164;-0.006691165318272074;-0.05491777410919485;0.13276085181606656;-0.00643556109843435;0.04272687851894652;-0.014357614614287417;0.1770647551991151;-0.03153015975088136;0.29120487215529334;0.06709769726313053;0.249864688799863;0.06740974952524725
A;-7.1;0.2021944355779539;-0.032051578516520074;0.28177629222577627;0.005574477249206122;0.002331062839287301;-0.0508265646260575;0.13887249621841402;-0.004933519037239931;0.04695433806086813;-0.011133500242159755;0.17811704980945817;-0.031443260137708595;0.29185902483289117;0.06546443485457432;0.24905487799068338;0.06561215933528364
A;-7.0;0.20659470081217113;-0.029734085850650294;0.287520989357386;0.008458852915943726;0.010594316451266739;-0.046273249134444416;0.14503623610002347;-0.0031604122614483643;0.05270041316813279;-0.006834744248585434;0.17900882287816958;-0.030630793032311865;0.2922712900890587;0.06353872784249037;0.2475809042502195;0.0634524779238983
A;-6.9;0.21004070751359105;-0.027518249956766105;0.2917574706228456;0.011035984381652986;0.018168645501956293;-0.04131123836842021;0.15113255888341848;-0.0011732118578242634;0.059669008078126806;-0.001620646434167039;0.1797400273049111;-0.029179669470473457;0.2923891366810314;0.06134113985767531;0.24547012380134958;0.060967703568548304
A;-6.8;0.21257876950437682;-0.025412894699724742;0.2945570179155915;0.013307107179835187;0.025212997361726663;-0.03600109932207696;0.15701936236441383;0.0009496688796288844;0.06747547817735022;0.004290392474879834;0.18029959645277963;-0.027240290617464802;0.2921650720089368;0.05891411843978811;0.24275342321374094;0.05820767643233582
A;-6.7;0.21428510878411777;-0.023422461857212973;0.296080234069529;0.015291845924699343;0.031828046751720795;-0.03040474956842143;0.16276067878867395;0.0031933631505383087;0.07603510829376892;0.01084713427164452;0.18076540350737;-0.02483368205881553;0.2916991234061772;0.056320282483675266;0.23956560410734995;0.055240267299621726
A;-6.6;0.21524729268196885;-0.021546446369683503;0.29654250263326365;0.017024016344213022;0.0379926504113649;-0.02463475055563702;0.16837707026629967;0.005526326941797333;0.08523854539036702;0.017954166179352304;0.18117542094380776;-0.022008603527306603;0.291076028054277;0.05364037062588323;0.23602045240447622;0.05214163417282536
A;-6.5;0.2156337989163628;-0.01975575283348796;0.29611326798253557;0.01854176575694888;0.044099038211557695;-0.018642383079439107;0.17397334546380727;0.00795874318703027;0.09504878888151425;0.025593310011316373;0.18159418320272855;-0.01882151738710225;0.2904067024527095;0.05090325334402279;0.23221483851057956;0.04893327382516954
A;-6.4;0.21559344379624235;-0.01802384276130109;0.29491791234053844;0.019874633154651766;0.05054843180924584;-0.012355405066665215;0.17968404782180603;0.010516513335966371;0.10548297772175252;0.0337876748294168;0.18210291599556053;-0.015295922456995625;0.289802926199761;0.04812072890530361;0.22824425590631647;0.04562510379290208
A;-6.3;0.21513057176307138;-0.016351207362501174;0.2929988556115114;0.021028473074620857;0.05717611360719865;-0.005923117215739904;0.1852273193784999;0.013096543369237157;0.11614058474419087;0.04222872719565185;0.1825491778557575;-0.011631534222373174;0.2891127672942473;0.04532609467862403;0.22400978498941027;0.042237573788573846
A;-6.2;0.21419601535623944;-0.014750016451489989;0.2903236446505424;0.021990376865691053;0.06371705485123969;0.0004686789444825479;0.19023023655216065;0.015572208991977865;0.12652079059502208;0.05053748070242747;0.18274408464959305;-0.00805403459352838;0.2881073041220532;0.04253854033111071;0.2193652834709945;0.03878461710643211
A;-6.1;0.21263771027824396;-0.013270663677147354;0.28677405914851417;0.022712970009103772;0.0698411321291228;0.006670348856552266;0.19455428494920723;0.017887477423726317;0.13639893085687693;0.0585704901367583;0.1826870870482599;-0.004564789244986933;0.2866698580406757;0.0397631937748244;0.21430837738239017;0.035306285883434096
A;-6.0;0.21024041293346496;-0.011984527434030445;0.2821811391925034;0.023128603090020405;0.07511270452446661;0.01249193785146785;0.19804459263468033;0.019977387797346813;0.14551624964701781;0.06617073132231255;0.1823966222680722;-0.0011395803844527208;0.2846682972467347;0.03700763402818663;0.20885338054552582;0.03185778346655299
A;-5.9;0.20688414755713258;-0.010942288319397697;0.27636129294378564;0.023172981366550438;0.07946341792030198;0.017839919111476865;0.20062926093940403;0.021810359821471392;0.1536283122113593;0.0732008728833915;0.18195439385218667;0.0022356197226078844;0.2820016627453297;0.03423939149068955;0.20304172790142883;0.028465569183676598
A;-5.8;0.2024857515384324;-0.01018910107713733;0.2691695182964061;0.022790979437214753;0.0829241037640619;0.022661897248178464;0.20233653060258594;0.023383421397170423;0.16059121921881647;0.07960206605225761;0.18150228918915404;0.005620141133587442;0.2786369717948374;0.03142756169174299;0.19696947138326182;0.0251604074785301
A;-5.7;0.1969081321044739;-0.009785473650055776;0.2604903311407649;0.02192325133619555;0.08526659110062085;0.026744231719346923;0.20293676382678028;0.024595077362976836;0.1659305376054917;0.08506439195723692;0.18102933836475324;0.008915487211316853;0.2744418879383741;0.028599269548819528;0.19065852226859337;0.022007351206032366
A;-5.6;0.1900784895096188;-0.00977260228105048;0.2502792639275123;0.02053305481663248;0.08632458738271731;0.029893933311920806;0.20220831716164445;0.025348240625131746;0.1691997256114609;0.08928049343536304;0.18049639970215167;0.011991665934809603;0.26931095625015766;0.025791516620704114;0.18412368481902286;0.01906493536940812
A;-5.5;0.18202751032942355;-0.010163879806203369;0.23869891399946497;0.018641947734071795;0.08599830686070586;0.03204841436811856;0.2002678924542789;0.025646706659108842;0.17044885006711175;0.09229783825855442;0.18000693796390518;0.014909417330595476;0.26337122582890604;0.0230700194953255;0.17751838284269683;0.016405950735433716
A;-5.4;0.17281480187559617;-0.010958156816363696;0.22597357069135116;0.0162921099167479;0.08418708984860379;0.03317444256978597;0.19725446303565408;0.025504077983671714;0.16981434051243816;0.09421431911240719;0.17962432850861468;0.017727088185402584;0.256781173453704;0.02051343823530183;0.17098311096592134;0.014096995295758141
A;-5.3;0.16268994082416088;-0.012089767921821926;0.21237971557870983;0.013568420468588194;0.08114854471431676;0.0334075380624439;0.19340579734283825;0.0250035394939343;0.16764054603160838;0.09522351924448413;0.17938702407312987;0.020478834818463465;0.2497321506496255;0.018138687209623194;0.16460435104033144;0.012124793825621705
A;-5.2;0.15193958168228328;-0.013475021449771196;0.1982021027383929;0.010569856952928669;0.07721847818536698;0.032954124547810215;0.18902298303323395;0.024260499804256375;0.164399690208902;0.09560367647292534;0.17934175478731548;0.02323141043282173;0.242423468004209;0.0159357044881836;0.15844942548779173;0.010448305859328988
A;-5.1;0.1406496472457559;-0.015070183219504374;0.1835488665983941;0.007340041581846535;0.07245297562298714;0.03186510227466721;0.18400654826044183;0.023261870358187275;0.16009999237718742;0.09531271713032541;0.17926166201294527;0.02584938432257078;0.23482913430919372;0.013917062678769243;0.15240551621484155;0.009029931609934483
A;-5.0;0.12890201124579348;-0.016830391164565306;0.168493069765691;0.003916602433742256;0.06692093983804592;0.03019047754660753;0.17821923238968385;0.021988434371687626;0.15470517767370817;0.09427264609612984;0.1788991978467742;0.028175130812940763;0.2268860174657903;0.012080476500611503;0.1463303564905094;0.007820058761880855
A;-4.9;0.1167117664331303;-0.01873282810067156;0.15306696062804193;0.0003289790645202295;0.06061498624352979;0.028028798189393855;0.17174130821990707;0.020478441403076753;0.14841260607827556;0.09262732392476702;0.1782323130627599;0.030273482207675118;0.21855893716494745;0.010383266952044723;0.1401711000602509;0.006782718410516475
A;-4.8;0.10406623386515457;-0.02076532391951247;0.13729027306530517;-0.003401961609227344;0.05348406338871914;0.025449715997686306;0.16463484527605599;0.018758450938206828;0.14137686300603247;0.09049694976980849;0.17724397702855774;0.03220810428573373;0.2098147861843107;0.00879421031479799;0.1338884434272628;0.005894964886282716
A;-4.7;0.09121633961871067;-0.022866124594115966;0.12135323912609897;-0.007204673387792404;0.045832907371113896;0.022623315160126722;0.15723054922607305;0.016949562011359998;0.13400858574567176;0.08813456390755903;0.176117473860792;0.03411166217745154;0.20080969775687896;0.0072638704275003185;0.12759103022569662;0.005123382902914475
A;-4.6;0.07849273046395977;-0.02496158037317686;0.10552321833538836;-0.01098926995156102;0.03806077689538201;0.01974728054189212;0.14997624511360552;0.015207102267301043;0.12683327850682924;0.08586414286956545;0.17512425508950116;0.03616088728854605;0.19179849119033565;0.005752453252299672;0.12146720167657166;0.004443848033707898
A;-4.5;0.0661274225014643;-0.026999557819690656;0.0900631932552104;-0.01469171576715289;0.030382806358525638;0.016836063412163593;0.14290295811425113;0.013542202860794106;0.11989557323818922;0.08363707115624797;0.17416520866160398;0.03822013098841248;0.18298043040960787;0.004339866767485212;0.11559188902878248;0.0038689689390960513
A;-4.4;0.05440837273544985;-0.028915647659196075;0.07531035112244977;-0.0182336074550129;0.023058021559359543;0.013886604917580758;0.13600122368987266;0.01195242876260294;0.11319753028883905;0.0813485150261466;0.17307263065719988;0.04007793538581994;0.17460201052930313;0.0031427680036175687;0.11004515257899627;0.0034190720971936095
A;-4.3;0.04361674348734779;-0.030648122304474112;0.06163245114542548;-0.021523069032026276;0.016336612765700753;0.010976702918947367;0.12949727340043382;0.010503452428134219;0.10704419078360594;0.07914307262374032;0.17186752931790925;0.04171707723264506;0.166997945296405;0.0022580026253480323;0.10500165071808454;0.0031204597962335434
A;-4.2;0.03397020223895342;-0.03214541244576741;0.049352248407502075;-0.024481237824837798;0.010396319577251623;0.008157591302093703;0.12352244985300165;0.009230266437194157;0.10164818169017076;0.07710744825316085;0.17048979686432944;0.043075896770799926;0.16045002673718534;0.001790314358663947;0.10058438526376734;0.0029983530253263613
A;-4.1;0.025894139613916956;-0.03330369599987937;0.03893585381600573;-0.026977743161096024;0.005659565505440889;0.005581328719909795;0.11835779925456058;0.008233238916969032;0.09741836081922761;0.07542290149098885;0.16893703860299383;0.04410699313667921;0.1552992329511651;0.0018098838271025652;0.09693730917103727;0.003045374795668465
A;-4.0;0.019760401174281128;-0.03402918502624752;0.030773084916310922;-0.028896064535848476;0.002515235533540605;0.0034165657172486874;0.11429916038088539;0.007619679272677926;0.09477620025826194;0.07430426586594718;0.16725205691544495;0.04481724981096702;0.15181663554203761;0.0023464392103189624;0.09417855444727607;0.0032415849291511645
A;-3.9;0.015571939422892589;-0.034298717922300215;0.024889885389662858;-0.030225400374128242;0.000970348230287077;0.0016178195925813377;0.1110102500072434;0.007296757098000262;0.09340514766966157;0.07347823632273953;0.16503757841556002;0.044909680943721275;0.14989387980054691;0.0034442502570459776;0.09211846350922914;0.00355842896117764
A;-3.8;0.013239913108814783;-0.03410977088949951;0.021194366878593773;-0.03098454381819349;0.0009365659957581984;9.858578450727684e-05;0.10805446245557793;0.007140085779004712;0.09284258136101109;0.07258973528352075;0.16187447808124591;0.04407407137093455;0.14929891476125;0.0051170764075281205;0.0905026021105707;0.003960751944957153
A;-3.7;0.01244980310966759;-0.03352314043294191;0.01935490589625566;-0.03124898452596714;0.00214088205999885;-0.0011894078600889202;0.10522573322797313;0.007080993758816545;0.0928187404847165;0.07153948733963356;0.157707940883525;0.04234309194417596;0.14971786405931287;0.007277464424987334;0.08916350585447763;0.004423149100279744
A;-3.6;0.012779317627887865;-0.0326294028167704;0.018928363137114324;-0.03112688846869638;0.004204604408981294;-0.002330491327486195;0.10229430219074187;0.007036000537439024;0.0930003813312833;0.07021549503856139;0.1525334683860373;0.039796675025970285;0.1507950897551089;0.009826362429050217;0.08793928455206323;0.004930515496405885
A;-3.5;0.014133979364154392;-0.03145849109570964;0.01974704416709483;-0.030646901949584082;0.00702156986885083;-0.0033131963340808923;0.09938663114168755;0.00703853689175804;0.09340944231830872;0.06870634198753289;0.1466288998606511;0.036649385184217786;0.15235603778276086;0.012635029637589223;0.08683549191492301;0.0054695214131328385
A;-3.4;0.01644858026359608;-0.030038342386917494;0.021671957074220094;-0.0298300426630691;0.010518634851959807;-0.0040990011004713445;0.09673766301474163;0.0071539726936287185;0.09418330461520807;0.06718841635512662;0.14037335750731797;0.03318964709244476;0.15428129969360294;0.015568315849834091;0.08591729954746752;0.006032291581601346
A;-3.3;0.01957206945815737;-0.028413105458337196;0.02453412556547585;-0.028728476404656922;0.014529202877727632;-0.004796883932154161;0.09420895998898082;0.0073257095731922295;0.09506588413179395;0.06550751930965082;0.13377208311410207;0.02939762400294421;0.1565172474955847;0.01863308330229385;0.08518113125754845;0.006639583101468727
A;-3.2;0.02339702272277222;-0.02661519395752654;0.02821231834030513;-0.027382328552386204;0.018924846269890994;-0.0055119039710405104;0.09164884026481523;0.0074959233069602504;0.09579953773611782;0.06349122486327086;0.12679015026364795;0.02521341751821904;0.15902964131793174;0.021849399407610548;0.08461671127506432;0.0073100213659078594
A;-3.1;0.027607184318924727;-0.024713311841237928;0.032421442612338924;-0.025869035547259056;0.02346254608283338;-0.0062913438566627455;0.08891566371808546;0.007609206700045279;0.09621578536375675;0.06110647758652554;0.11940274301157641;0.020688204164000412;0.1616943174977552;0.025202142649818127;0.08416775640002849;0.008046479716243393
A;-3.0;0.031802017796733306;-0.022786938746255814;0.036807788760095383;-0.024281978409063765;0.027847683210481033;-0.007183992345184631;0.08578075954401276;0.007584148374213839;0.09607845071516896;0.05828854496458313;0.11149365548113718;0.01583778232499855;0.1643195744341579;0.02867401787708901;0.0837123732251156;0.008841965468320057
A;-2.9;0.035860151152696806;-0.020851126960306887;0.041208197060227825;-0.022636819961996846;0.03200381520843376;-0.008096184521455774;0.08232792806510547;0.007455240056850387;0.09546844503672314;0.055183921694646365;0.10321457568693901;0.01084389013058007;0.16661693802635003;0.032106145134551234;0.08313434958440602;0.009643508681665303
A;-2.8;0.039652710173674555;-0.01891807620242325;0.04542930517594179;-0.02094602402200807;0.035855396219191815;-0.008890247087876224;0.07869315904678009;0.007278331360618839;0.09452803647543107;0.052006360959836906;0.0947790162941812;0.005956845591468363;0.16819387411785636;0.035276369859099654;0.08227556321557894;0.010376342966470053
A;-2.7;0.04287439907839086;-0.017031148107273575;0.049128960882650397;-0.01927340372360331;0.039175753966796456;-0.009567716196526632;0.07463070352426526;0.006981368517583908;0.09296182986614598;0.04864280687742806;0.08605035733072033;0.0011663452726584644;0.16860003412132096;0.03804905630459232;0.08085230792569387;0.010980079514457897
A;-2.6;0.045282459801043284;-0.015223332983817395;0.05200873382655957;-0.01767014225891539;0.041774580292970875;-0.010128640210275375;0.06994180856364318;0.006507126747909098;0.09050166013958405;0.044987288504151346;0.07694140868259072;-0.003524381786988884;0.167401064207795;0.0402798690057391;0.07860319931823256;0.01139581927717015
A;-2.5;0.046439170727635926;-0.013572444075550916;0.05358256058985489;-0.016233929544204218;0.0433175671660081;-0.010555073362395362;0.06445161485763795;0.005802499789046456;0.08693003426454982;0.04104666304276483;0.06747017660202059;-0.007961697538104606;0.1640533128719761;0.04176842483176113;0.07525120723900536;0.011557614937488525
A;-2.4;0.045928027180180964;-0.012157428688557514;0.053402327187717535;-0.015062167154231476;0.043483020633834746;-0.010859667810267037;0.057978662167397;0.004807233513561826;0.0820198916508077;0.03679971369184587;0.057637075643806074;-0.012025843736500064;0.15812841946906753;0.04236821059936746;0.07057850312432323;0.01142055987508206
A;-2.3;0.043874510622161855;-0.010965218270013954;0.05149535059277277;-0.014124534595497007;0.042337049928596604;-0.010928165677887236;0.05093789330826137;0.003653907733957462;0.07613192434014204;0.03255756538904375;0.047950436971826604;-0.015357755259753914;0.14953240152932;0.04190324698153991;0.06468193226450447;0.010959853829973776
A;-2.2;0.04053928353861025;-0.009962544888385771;0.04803363563659924;-0.013361530821254908;0.04005093636423074;-0.01063000816299442;0.04386829075646692;0.0025152318367482884;0.06977782480164141;0.02870259661372665;0.03900370614875193;-0.017574785759534195;0.13834986814182448;0.040241015898373256;0.057775689270775366;0.010169188653972316
A;-2.1;0.03622035575103255;-0.00910735603534718;0.04332519896694875;-0.012715120048426565;0.03683816369035958;-0.010007912349805359;0.03695500516077077;0.0014379694539430332;0.06310311757862341;0.025230978308099727;0.030908726077244264;-0.018729352358777818;0.1250435445683531;0.037528133462940705;0.05013145751889636;0.009110070689057004
A;-2.0;0.03131271006914016;-0.008338248343602528;0.03779592829835232;-0.012105728803218696;0.03299177625766059;-0.009120572967036056;0.03037286040856868;0.00046601792257461305;0.056252889337849554;0.022092009462138407;0.02370873698797435;-0.018963838239317465;0.11021595184041488;0.03397981271397388;0.042069917145848845;0.007860241411563829
A;-1.9;0.025930118550163472;-0.007646091053652215;0.031644355947648695;-0.011520320027049946;0.02862812139255344;-0.008028632312786499;0.02408840767205822;-0.000411086562734031;0.04928059707734167;0.01923364019637397;0.01729230269402751;-0.018435646659686777;0.09433962401315954;0.029814887590306594;0.0338008995271204;0.006478560539124656
A;-1.8;0.020118997783590276;-0.007031527183844588;0.025021166180188126;-0.010961674516466013;0.02382132463703368;-0.006822211773449771;0.017951580817425983;-0.0012417652143290603;0.04212852149785262;0.016522890731948126;0.011423346193744327;-0.017381742890287266;0.07787367534573075;0.025282508969004303;0.025490526189163032;0.005025856582880239
A;-1.7;0.014127070910000317;-0.006449964291088683;0.018189536196961842;-0.010373494649794646;0.01877983766611646;-0.00544858432695472;0.01214255918737206;-0.0019572960431537556;0.03503147845977661;0.014064703746007101;0.0061974837103069835;-0.015811613330406593;0.06107367153107801;0.020446904007823008;0.017282229816147132;0.0035148466362118214
A;-1.6;0.008172668639733649;-0.005862461863706647;0.011369604577851966;-0.009705419863327736;0.013687521589099805;-0.003837854702227972;0.006863420622094107;-0.0024803663478345506;0.028249429073004872;0.012003677392205425;0.0017546449437735034;-0.01368335112879282;0.04411961223302674;0.015331352321498626;0.009293338638805437;0.0019471288964363342
A;-1.5;0.0024686851298565404;-0.00522892271530262;0.004773856238916241;-0.008911570589629436;0.008702348913210534;-0.0020478206841647584;0.002146984176589095;-0.0028139306688044208;0.021733186633903;0.010210072852474328;-0.0019670007044767512;-0.011152098280007405;0.027279166304820857;0.01004826302880546;0.0016352434667986637;0.000361900741705945
A;-1.4;-0.002727701047380293;-0.004503132432231993;-0.0013618904481855765;-0.007937441413434776;0.0039975677252180875;-0.00015052100838630622;-0.0019353031261837295;-0.0029556567987194526;0.015426009131425444;0.008540194006969148;-0.004988382450603929;-0.008361774142860878;0.010830779949614566;0.004701689237532447;-0.005561073055616705;-0.0011954888361422888
A;-1.3;-0.007403490875797836;-0.0037011122304289046;-0.00698343838867177;-0.006799019915294302;-0.0004201150892166883;0.0017303075938945867;-0.005464057779531517;-0.0029495468541507197;0.009249402865498801;0.00687279982666511;-0.007406112128621994;-0.005436673124498248;-0.004867327454102233;-0.0005328543393994245;-0.012128735780709388;-0.002660956824676486
A;-1.2;-0.011567171627470563;-0.0028494161046819233;-0.012039713734844915;-0.005523426027613354;-0.004561587026736258;0.003428352236534371;-0.008555443471065516;-0.002857880005578961;0.0030941737791724266;0.0050488953164646855;-0.009347829854201573;-0.0025308587398218396;-0.01934158544256981;-0.005421606816406799;-0.017843253419000282;-0.003947600169445398
A;-1.1;-0.014954942605154065;-0.0019252751880707297;-0.01627836038330943;-0.004071417577695913;-0.00826906370359437;0.0048873733137642095;-0.010986196642934765;-0.002626241443589805;-0.0028396711211855497;0.0031301354106296753;-0.010615015027250319;0.00039145602658463563;-0.03215673805952379;-0.009848168550546932;-0.02241597317169053;-0.004993060811997241
A;-1.0;-0.01732659046514473;-0.0009119871212102115;-0.01945778267454179;-0.0024107798619186216;-0.011395399278200102;0.006064318489080511;-0.01254029949439528;-0.0021963941125169306;-0.008314247616141746;0.001214113985349874;-0.011008373958076911;0.003380867539219068;-0.04287523299131202;-0.013693326095148395;-0.02555738857984491;-0.005738967879757029
A;-0.9;-0.018364863258855335;0.0002251993749244896;-0.021227321738164884;-0.000492034767295868;-0.01372114841051475;0.0068249705401668415;-0.013086830819749151;-0.0015575780250089988;-0.013256980226461046;-0.0008067633707014021;-0.010492521536710903;0.006294545985400801;-0.05078510490981136;-0.01668872236535268;-0.026880481318948157;-0.006074937757881482
A;-0.8;-0.017757189533201823;0.0015267308121813539;-0.02125039876320345;0.0017380416879617666;-0.015024932651009126;0.007065351149109889;-0.012497280356431384;-0.0006937242046920478;-0.01759995769063849;-0.0030295641325286393;-0.009037741561006396;0.008994432687058351;-0.0552753637287795;-0.01860667017374862;-0.026058619859910648;-0.0059094722303376646
A;-0.7;-0.015654466573082226;0.0029512341231823225;-0.019555897762806307;0.004224502555912002;-0.015367091212596606;0.006669800660773273;-0.011062571262016263;0.00030471319584335355;-0.021478724911801472;-0.005605065072175064;-0.006960053370160341;0.011248469387549753;-0.05597891173107117;-0.019200545276398806;-0.022990094408243844;-0.005187476671636659
A;-0.6;-0.012341379085971216;0.004441309483460776;-0.01629948908518153;0.006888305700796238;-0.014885194713267436;0.005536853003051512;-0.009177140180468557;0.0013196771794592443;-0.02511440877786797;-0.008710171937757138;-0.0046656140900417364;0.012807194158149016;-0.05269775645019248;-0.018263283416811715;-0.017689650659187373;-0.003876429219052513
A;-0.5;-0.00801550155610542;0.005972055046877811;-0.011684802943223493;0.009688480253441822;-0.013694724201026354;0.0037736445375124994;-0.006956876161972492;0.00235047306388414;-0.02849958017425569;-0.01223715436033257;-0.0022163122339337316;0.0137224156234943;-0.04586557767647648;-0.015943930820908392;-0.010424472750934055;-0.0020590823159074567
A;-0.4;-0.00294499171541851;0.0075101768783953915;-0.006012692116608265;0.012572896140472745;-0.011969076976394044;0.001534743694997287;-0.004519096374099751;0.003405359533468433;-0.031613270636538626;-0.0160149946390169;0.00035813938309578464;0.014118769310972556;-0.036161719883649024;-0.012497431388214464;-0.0015835987392933681;0.0001432776008429837
A;-0.3;0.0027232525318638956;0.00905485668652628;0.000500230658880163;0.015529742468543661;-0.009781444816483242;-0.0010778389200098992;-0.0018745700257998266;0.0044892648997347795;-0.03452517433017466;-0.020004922392501845;0.003059882706770628;0.014071091208663122;-0.02412690519311589;-0.008142913601123292;0.008532288668350207;0.0026523263116398077
A;-0.2;0.008904269776218943;0.010617468998404878;0.007669493570070962;0.01856295598341018;-0.0071735431814169415;-0.00394130566791806;0.001047194764229431;0.00563087086223879;-0.03726000424410636;-0.024132389573300106;0.0059713394753533044;0.013701697987973938;-0.010345727189346565;-0.0031433543277659126;0.019620951470592618;0.005382205635086734
A;-0.1;0.01530051495300988;0.01214910712387729;0.015187616369869983;0.02160740322220378;-0.0043451769204319035;-0.007040372855946275;0.004042658046317316;0.006775089623918484;-0.03994366812665995;-0.02839210744891063;0.008939080820043716;0.013026656620619304;0.004745469492114518;0.002377389302888888;0.03140794682055936;0.00827712836134098
A;0.0;0.021627808164374596;0.01360077221046141;0.02277616771067037;0.024598057781110017;-0.0014822867883805824;-0.010386841200759278;0.006893686939343446;0.007856236852307408;-0.042718582963525376;-0.03281383903845181;0.011782336470177596;0.012026725186264131;0.02082170252209825;0.008347322582174188;0.04367198820211571;0.011300402321253955
A;0.1;0.027784242039725626;0.01495036612950007;0.030296314889138087;0.027502031170575147;0.0013173362164319302;-0.013867067140959088;0.00958135261517401;0.008904997930978542;-0.045456416769216634;-0.037193505081833944;0.014561245394962369;0.010841062649076916;0.03745678876149672;0.014581853022174851;0.05618770718594679;0.014364896088565393
A;0.2;0.033683742316557685;0.016174953825760507;0.037640772387321775;0.030284865538595884;0.0039622917850641315;-0.017352335972032673;0.012081364670432082;0.009961635098224786;-0.04798124637286538;-0.041291201624631846;0.017346188528504586;0.009614013319311554;0.05425689161497016;0.020909406129593355;0.06874602003607255;0.01737888714436364
A;0.3;0.039383785874558486;0.01730451179659176;0.0448227221088765;0.0329691309063449;0.006525777200371619;-0.020717875378480022;0.014503719549432637;0.01107473840507156;-0.050214181333623764;-0.04502149710714498;0.020237049705457227;0.008410660328073583;0.07100221951240515;0.027206380169517264;0.08123137259790159;0.020290752337068785
A;0.4;0.04498499494097086;0.01838575631727979;0.051886677721764474;0.03559427436103446;0.009125889279644639;-0.02380325448214049;0.017009754073925798;0.012311730255582187;-0.05206280641910688;-0.04829251379155708;0.02337074361758476;0.007303453935130211;0.08744830731323594;0.03332621751986209;0.0935179691878929;0.023040428174844196
A;0.5;0.050348443292702605;0.019408558831587985;0.05872657677931048;0.03813349864049109;0.011707366194448676;-0.026521537640504356;0.01947035146457221;0.01366438577578677;-0.05354840632425728;-0.05107420129981044;0.02665682232265612;0.006272732940750925;0.10335942730337488;0.0392116052276823;0.1054337079698432;0.025574872776410906
A;0.6;0.055315653678161825;0.020364077219555243;0.06521518632560186;0.04056155544081208;0.014212377127400977;-0.028802395429099015;0.021746025969584304;0.015111962714301264;-0.054745094848902554;-0.05338445981218776;0.029979279622963956;0.005277725077865392;0.11849903353218405;0.044811752897249146;0.11680240855025625;0.02784971758527166
A;0.7;0.05975210758236238;0.021252558913777975;0.07118820879757715;0.04286120853126829;0.01657701183317961;-0.030450342087074755;0.023801401169225134;0.016696739199604238;-0.055588310259693574;-0.055055559438403456;0.033362830972794716;0.004419160520397369;0.132300025684998;0.04989905137274464;0.12729568080607778;0.029747880189921805
A;0.8;0.06350002827344192;0.022063046387564622;0.07645981557784443;0.045005392286428636;0.018705015753510246;-0.03129744814106017;0.02557474467475207;0.01845017820530681;-0.056018506685709846;-0.05591910301981229;0.03681402483332616;0.0038000949984433596;0.14419820212313716;0.05425360439521132;0.13658854120886954;0.031157651599295733
A;0.9;0.06660986991030948;0.022841126435377612;0.08096705587002395;0.04703842267217628;0.020676948773906134;-0.031232417885508568;0.027266715165679356;0.02041675436196666;-0.056057441412803666;-0.055960690252897294;0.04047016150284771;0.0035173413351180516;0.15380664068268612;0.05766403420600441;0.14449882269792336;0.03203109575898888
A;1.0;0.06919610146200439;0.02363938334029614;0.08469056928293828;0.049015537128833664;0.02260747655302575;-0.030174349192894967;0.029134323322422828;0.02264157942917122;-0.05572031055879856;-0.055181781366502314;0.04449473042393831;0.003668927434180125;0.16082777172048002;0.05993772445213863;0.15090343104476578;0.032340093849210216
A;1.1;0.07122159048171417;0.024438453168059038;0.0875891190125897;0.05092102292368139;0.024453996388186794;-0.028262682244901693;0.031118795268489707;0.025062252281270903;-0.05511627823330589;-0.05370984478127694;0.048786485318766615;0.004194846509884331;0.1653803529244382;0.06114705299039214;0.15586227385233287;0.03213991369411717
A;1.2;0.07267594293286184;0.025213888664644024;0.08967256306443139;0.052736594972380146;0.02618472009489603;-0.02570403694716239;0.03313956372561311;0.027593564947721028;-0.054374996235750706;-0.05173030392304967;0.05321030424449133;0.004990091878812719;0.16778712840830945;0.06145497529312549;0.15954381281517183;0.03152501946434749
A;1.3;0.07357216268615607;0.02593290696467543;0.09096218371952314;0.05442626027100039;0.027751661398250027;-0.022614817985482816;0.035109193737748345;0.030186238515765407;-0.05347312394012094;-0.04924409881739544;0.05765505079609354;0.006008551423794195;0.16827104459947684;0.06096537649914313;0.16204478826027746;0.030534055205329924
A;1.4;0.07389383020944695;0.02655016014753464;0.09147667399754866;0.05594006491123049;0.02907615502536487;-0.019127602566760382;0.036878627848232926;0.032780220635822976;-0.05238260327515065;-0.04624767114978168;0.061970708488207654;0.007186116577263535;0.16709904630577288;0.05981669242232868;0.16347609275138364;0.029208638936434994
A;1.5;0.07381508743241172;0.02708964670149583;0.09137259736139891;0.05730343360587531;0.030278029156106556;-0.01531115272578032;0.03856545051252436;0.03536338744777012;-0.051086427004017554;-0.04281765228096823;0.0661996898485486;0.008494137941709945;0.16460643336489356;0.05810616000781921;0.16403062745682206;0.02761070732605231
A;1.6;0.07351747642000483;0.027583006664839038;0.09080067496133937;0.058549250957286914;0.03148869518456099;-0.011201363907827444;0.040317155765563495;0.037938427922808104;-0.04955651856140986;-0.039009640282429814;0.07041312952670561;0.009924159870503546;0.16105991833574573;0.05589430967225861;0.1638675087323852;0.025787877770622414
A;1.7;0.07295080855798775;0.028011932962329622;0.08976559924133976;0.05966472322913652;0.032668636194223444;-0.006956219593331481;0.04202150992444964;0.040434666684133536;-0.0479319805584798;-0.03501362568538502;0.07449586301321784;0.01137648696272242;0.15670721115749076;0.0533290834829947;0.1631168852536532;0.023816962002238817
A;1.8;0.07201871776858404;0.02835537078103556;0.08823084599796915;0.06063739685412717;0.033755484728148044;-0.002750132516451842;0.043547686123375895;0.04277184762051056;-0.046402541560626065;-0.031060439440887988;0.07831574522530041;0.012742383363735343;0.15174859996777967;0.05055268741994601;0.16188753249533594;0.021780226479410025
A;1.9;0.07053644988073238;0.028557589187424348;0.08603197601780022;0.06141207856260844;0.034567336429448314;0.0013133736738903945;0.04468237383431939;0.04489115006871747;-0.04504564817617751;-0.02716330568894665;0.081687694003626;0.013979309831511078;0.1460807850527981;0.047588316906370665;0.16009146213513115;0.019680205659692973
A;2.0;0.06824896568111294;0.02854156807880681;0.08293579088674286;0.0619120536516371;0.034851206957135616;0.0051100210463719264;0.04513776004687098;0.04671946218582579;-0.04395228187029687;-0.02331355591705231;0.08436774503007546;0.01504132025679139;0.13951767160998085;0.0444467058354554;0.15758536083970331;0.0175088600227693
A;2.1;0.06507361559683722;0.02828912897763214;0.07883185654782887;0.062127602347903155;0.03453489447010161;0.008544683242139417;0.044888969840716;0.04821716234348039;-0.04321997562605073;-0.019582884253047217;0.08627819568125175;0.015911959985354107;0.13198901429781462;0.04111929576164752;0.15433554333869215;0.015294237596059412
A;2.2;0.06096486067517426;0.027786234890000427;0.07363338154426613;0.062051184414453786;0.03356696434668616;0.011543748064514636;0.04394343150423485;0.049356360427387225;-0.0429027381766629;-0.01600063516621364;0.08736163547382755;0.016590479933030644;0.12343564592458511;0.037586379906998424;0.15031253318277327;0.013056401547261842
A;2.3;0.05575770947822334;0.026975844656649484;0.0671969658212529;0.06163477500578085;0.03177609700834794;0.013890296610826969;0.04209685075483249;0.0500376774543867;-0.04317479084663933;-0.012715286049023167;0.08740081537132735;0.016986339684937346;0.1139075612523206;0.03394301770059016;0.1455311312516997;0.01085749391127111
A;2.4;0.049345075896706;0.025816356739658763;0.05944163321385265;0.06084493407902314;0.02904575984510227;0.015382888385857996;0.039194476604155204;0.05017086856332109;-0.044195660860429475;-0.009891205530750291;0.0862213093138813;0.017009714392365094;0.10353594217571005;0.03030175517338396;0.14005765428855554;0.008768646472498975
A;2.5;0.041649525860137926;0.024247363285124335;0.050315236302788;0.059611265756449816;0.02522948970631178;0.015942100193416575;0.03501775472031943;0.04970908408274255;-0.045906179812031045;-0.007426616162757194;0.08363593621169002;0.01662208479036409;0.09240418041000087;0.026737658906495154;0.13388257719599894;0.006782797635807691
A;2.6;0.032617505944375624;0.02221283846347255;0.039799459468848886;0.05786428149330192;0.020192235872259823;0.015525589834419984;0.029342343276874683;0.048621488900361776;-0.048209656666543976;-0.005184658633233585;0.0794845415205743;0.015797405690950783;0.0805976580685539;0.023322079168466736;0.1269941956611228;0.004877141346508962
A;2.7;0.022479208555711727;0.019768442733789415;0.028107867622756744;0.055649588881611756;0.01412532774894626;0.014265833662026495;0.02238011509866422;0.046972140416739805;-0.050943682962282466;-0.003079431427151169;0.0739443459093421;0.014595814580359967;0.06830746613496341;0.020050539953096358;0.11950623044150155;0.0030409630429002465
A;2.8;0.011523597691093457;0.016995316609662803;0.015501057191136813;0.053038167419596105;0.007287651492567271;0.012367314166241039;0.01443949587519655;0.04486239095799616;-0.05390111574811085;-0.0009929162761708188;0.06728226204884685;0.013112259689813;0.05570695595741482;0.01688246692745965;0.1115336093926419;0.0012488495206270933
A;2.9;-9.592097776267572e-05;0.013950608317705893;0.002147935222070796;0.050088661123620204;-0.00018457305736208074;0.009914109414116856;0.0056589335835464105;0.04234459375492916;-0.05707518550000912;0.0010104887535349327;0.05969345789420047;0.011388627636089499;0.042875029180645896;0.01381205286860232;0.10316006721465698;-0.0004958475335798962
A;3.0;-0.01220809222267838;0.01070490289240733;-0.011768393357414753;0.046876749560215814;-0.00812404814152845;0.006994967802721019;-0.003771973921218086;0.039477096055895;-0.060483551897702936;0.0028281159858558613;0.05141144442867995;0.009471085365956866;0.029890779162645487;0.010825824785186233;0.09448493312023665;-0.0021802338751291117
A;3.1;-0.024783907906189118;0.007275691051147337;-0.026208102786550946;0.04342068908655827;-0.016515964160536578;0.0037128232834060526;-0.01382022998706689;0.03632014932343264;-0.06404777204861656;0.00455297205553018;0.04252962242516803;0.00741245368681942;0.0166959418622592;0.007886516457551895;0.08547756510579729;-0.0038431693471943085
A;3.2;-0.037832226996536544;0.00366573227582645;-0.04116363786787469;0.03972414663025714;-0.025389203950155204;0.00014080849785158556;-0.024509896006333243;0.03291863577771115;-0.0677080166591828;0.006274844254056555;0.03309448825780978;0.005251645653913228;0.003216400217394444;0.00496775560123508;0.07609262913343184;-0.005521756702158598
A;3.3;-0.05112351099881174;-5.6373563640077506e-05;-0.05644109425084276;0.03585269095696231;-0.03452242386802029;-0.0035605466027386345;-0.035527295089111455;0.02935635539525916;-0.07129223550233021;0.008096889660813789;0.023320124897362293;0.0030669756202819087;-0.010392817495195494;0.0020326496561853258;0.06643940938822357;-0.007222767567088617
A;3.4;-0.06437994707031103;-0.0038157025755976015;-0.0718142327161585;0.03187351574618513;-0.043648442649600216;-0.007212056328975702;-0.04650718061236869;0.025720687290350597;-0.07457793427382253;0.010159483438698436;0.013426119197557401;0.0009421603225393538;-0.02391457644295336;-0.0009529321928494205;0.05665393936663521;-0.008952015244509726
A;3.5;-0.07735630837704788;-0.007550407354084188;-0.08704346711759658;0.027844048570879076;-0.05256349482786826;-0.010773850231519111;-0.05724567791862811;0.02203319404891424;-0.07754249233812338;0.012372814539748811;0.003580725077224567;-0.0011053691360602969;-0.03710355736963544;-0.003950872356959678;0.046916296030300675;-0.010669195474423576
A;3.6;-0.0897432702886991;-0.011184254938652494;-0.10182291720294223;0.02383413360082054;-0.061009532348411555;-0.014212189478002957;-0.06749876721810089;0.018310544632626158;-0.0801739761635859;0.014598407201130481;-0.006012145319845591;-0.0030630865420133713;-0.04963524812175235;-0.006904211346422162;0.037461986921768275;-0.01231826061211505
A;3.7;-0.10132089990445636;-0.014677579295931276;-0.11595280382889683;0.019865987282341457;-0.06880969712789098;-0.01744365306261919;-0.07713302577986192;0.014581074098170443;-0.08233711462999027;0.01689932062914501;-0.0152599439540545;-0.004904232472597747;-0.06127781150699496;-0.009783703086414075;0.028411053313674106;-0.013900148567381088
A;3.8;-0.11191185129998638;-0.017999925264085892;-0.12926383838154565;0.015954627223244033;-0.07583141183523612;-0.02040652256192388;-0.08607936081899115;0.01086522321040495;-0.08393892945269843;0.019310827133206754;-0.02409089177668411;-0.00661082346157027;-0.07184879780288389;-0.012557952291478713;0.019857019067504034;-0.015418377910636494
A;3.9;-0.12111940652108966;-0.021054222519608645;-0.14138575021705702;0.01218182931923728;-0.08172042789714506;-0.022931704241879736;-0.09396625547052495;0.0072393160574784066;-0.08477992360959175;0.021875430217847436;-0.03222059078899758;-0.008111858613501388;-0.08097980930407545;-0.015212874006797161;0.01203319450892093;-0.016861683597299892
A;4.0;-0.12859900124697132;-0.023752474619093578;-0.15200008894256456;0.008624040695857316;-0.08616183050388537;-0.024845892307992834;-0.1004441262752871;0.003786533622279098;-0.08465833632799358;0.024665059789435118;-0.03938240349528316;-0.00933150271805916;-0.08836352236961975;-0.01774951086538845;0.0051333511364888285;-0.018229428720114793
A;4.1;-0.1342083147682105;-0.026035299989197735;-0.16092617796241981;0.005353964478487239;-0.0890462952073734;-0.02615282577544842;-0.10540494834075997;0.0005313558894093351;-0.08371364141435389;0.02744945411011379;-0.0453669953901015;-0.010257625419270555;-0.09392642894344583;-0.020146031159566924;-0.0007182727147982959;-0.019479365345230315
A;4.2;-0.13787281821309993;-0.027854831315345052;-0.1680323560716681;0.0024423635219552597;-0.09032814491104668;-0.026898906231042963;-0.10878553133818625;-0.0025121271202732665;-0.08215115509441606;0.02994991215208742;-0.04998637918835175;-0.010892847804682693;-0.09765156681935716;-0.02237526776148746;-0.005413543240496255;-0.020558075500304973
A;4.3;-0.13985401851628243;-0.02926152709257357;-0.17354291984702952;-0.00013944121765940842;-0.09025036838774059;-0.027167151367157194;-0.11082673542963817;-0.005352115494082321;-0.08012043235869148;0.03213442967785962;-0.05336024144041453;-0.011261426708305322;-0.0998119602576173;-0.024446742035522107;-0.00910322868618918;-0.021479984051037793
A;4.4;-0.14053374430235133;-0.030338895965967838;-0.17779852791178663;-0.0024502937897665777;-0.08916863426167099;-0.027088921283380918;-0.11189317978666558;-0.008019636943508157;-0.07781774207000014;0.03398232777534549;-0.055713585099893506;-0.011410586274424372;-0.10079081721854033;-0.026371191993110443;-0.012013649540957738;-0.022265669651247544
A;4.5;-0.14006118766221065;-0.031123329775208708;-0.18091075064800055;-0.004505236023740977;-0.08722728780228428;-0.026706315530314217;-0.11204595657209437;-0.010505870871447387;-0.07524383865898099;0.03556181623876942;-0.05712336354486974;-0.011355250972934106;-0.10065139326660733;-0.02812885475899174;-0.014172074943794355;-0.022909514696455968
A;4.6;-0.1385942635748949;-0.03165874605701391;-0.18301208330219576;-0.006330956764765361;-0.08456919380943428;-0.02604586608595727;-0.11134681605916552;-0.012800223074058481;-0.07234884209376491;0.03700518755837834;-0.05769876682688607;-0.011107394214505462;-0.09945247406505242;-0.029705366023783597;-0.015623197366100516;-0.023417571547168725
A;4.7;-0.13626881943219948;-0.03197696508627401;-0.18420115231304535;-0.007942545592123817;-0.08134769301412181;-0.025223531479261485;-0.10994379705556434;-0.014940297537999747;-0.06930328547654796;0.03819942130309384;-0.05753819147691891;-0.010719037225056294;-0.09732095155185316;-0.031069490864558347;-0.016400863592469728;-0.023757312599885116
A;4.8;-0.13316718958076645;-0.03209563331110288;-0.1845216332981523;-0.009341836696199257;-0.0776665613380565;-0.024342977689643774;-0.10793399274884696;-0.016958305177399602;-0.06626980772356905;0.03901047750325648;-0.056694600415116064;-0.010235893308588317;-0.09433414107981086;-0.032186875638245294;-0.016501982492761913;-0.023890427823927363
A;4.9;-0.12958968491963363;-0.03208472304218568;-0.18427696327075993;-0.010592892517543362;-0.07377371758685503;-0.02348647325432962;-0.10564412178851224;-0.01888594988522896;-0.0633787406118429;0.03946440354481462;-0.055396389169445975;-0.009693345986104385;-0.09084052467294512;-0.03309009913753025;-0.01616709945893069;-0.02385986597488121
A;5.0;-0.12588715927708338;-0.032022295009902946;-0.18382273838543317;-0.011767601407570716;-0.06996385700674568;-0.022741436368802104;-0.1034676477208416;-0.02075534423286851;-0.06079577968577188;0.03957881866903468;-0.05389082727260003;-0.009123877898402966;-0.08727257765081342;-0.033828383875557755;-0.015693144411416338;-0.023723291116077405
A;5.1;-0.12219843323063073;-0.03193450781793361;-0.1832733995098672;-0.012876034390105762;-0.06632840493662862;-0.022078595419405822;-0.10144304603607668;-0.022523351021676685;-0.05844948488049406;0.039489080564176327;-0.0522006448958337;-0.008499977803321901;-0.08372002241541665;-0.03442548629892883;-0.015158456540817822;-0.023522189419600714
A;5.2;-0.11867897752050127;-0.03184851611830908;-0.1827554086939569;-0.013925367006386136;-0.06296261368940426;-0.021441849857232853;-0.09958225403857002;-0.024126660223509733;-0.056216595496443755;0.039386747441413794;-0.05033172362682324;-0.007778697592479178;-0.08026176976146138;-0.03491201897273433;-0.01464432609861599;-0.02330953801996749
A;5.3;-0.11553058559177942;-0.03179397269990236;-0.18241088977912634;-0.014916227718424935;-0.0600901058571881;-0.02088383804746874;-0.09804608658934333;-0.025544326651828042;-0.05423734544772796;0.039220155039301874;-0.0482918459704586;-0.0069542374227804515;-0.07712010193328167;-0.035303943897740275;-0.014251848774559761;-0.023098772572955895
A;5.4;-0.11290526070803097;-0.03179033774033391;-0.18232155108278536;-0.015836575947550058;-0.0579022795203179;-0.020453775681819497;-0.09693213308791471;-0.026751375644783026;-0.05263348220295694;0.03892821006719438;-0.046050895238589726;-0.006020734650372228;-0.0744403216444045;-0.03560075300027021;-0.014021814878457217;-0.02288712130358106
A;5.5;-0.11118740159880747;-0.031911330539314164;-0.1828353309449724;-0.01673279660585214;-0.05673330634733176;-0.020208732106151928;-0.09654478394727595;-0.027734748042798962;-0.05150708848088148;0.03858503896604315;-0.04377698906670659;-0.004987288404752155;-0.07259376075575874;-0.035841160448285336;-0.01419619319080856;-0.02272542414940637
A;5.6;-0.11074571896906549;-0.03223056249266287;-0.1842927503637739;-0.017655957148993595;-0.056912803585464244;-0.020222107955065738;-0.09720742341403743;-0.02849819681187382;-0.050989913000015874;0.038234581837109705;-0.04166131644262085;-0.0038768043530811314;-0.07195671496978395;-0.03605830154509748;-0.015015463733201617;-0.022655615891154612
A;5.7;-0.11159910927782035;-0.0327612795260146;-0.18668539938985806;-0.018606096803899463;-0.058420285838276076;-0.020440187073960114;-0.09878576970281139;-0.028999042707292144;-0.05086938408702324;0.038090646368723835;-0.03971234184004653;-0.0026766313094246375;-0.07237708522016195;-0.036226801860458124;-0.01640988968689916;-0.022684575398687956
A;5.8;-0.11368206216124932;-0.03350248116580157;-0.1899436871300768;-0.01957942624575648;-0.06112091403208242;-0.02077618146759752;-0.10105417891050794;-0.02919543953909276;-0.05085536004561786;0.038405555411211045;-0.03792676962675273;-0.0013712244321955058;-0.0736074268161464;-0.036320353077370804;-0.018268302813445603;-0.022819154854796908
A;5.9;-0.11675988937280124;-0.034414845208714295;-0.19382255909788837;-0.020543501873205194;-0.0648602113198582;-0.02123861458527343;-0.10383571372137967;-0.02910624311802157;-0.0509484175043452;0.0390903233936184;-0.03622208287665904;1.8412300087256028e-05;-0.07542390963655032;-0.03628667170059918;-0.020402705920743225;-0.02299893803712849
A;6.0;-0.12049037630166026;-0.03543710893239105;-0.1979729311356011;-0.021450127842110867;-0.06939756010552933;-0.02183004067602612;-0.10688130286901476;-0.028756491832788056;-0.05115446883187513;0.040001808751648715;-0.03445841066886651;0.0014737891972931294;-0.07752284975369239;-0.036066977586552085;-0.022563632033575365;-0.023149506181082913
A;6.1;-0.12478256457902859;-0.03655043362846877;-0.20236997747577723;-0.022307067850795947;-0.0745551435335623;-0.02254233521964699;-0.11016722597856843;-0.028187852050816975;-0.0515035979966596;0.041081196480873494;-0.03269195435057029;0.002971871473542609;-0.07994017355622818;-0.03569395808048892;-0.02479273767235579;-0.023279140838463608
A;6.2;-0.1295712029656062;-0.0377388021551035;-0.20701468697215408;-0.023125128302326825;-0.08019998172654952;-0.02338914805633041;-0.11373134830546427;-0.027452669407186825;-0.05209778942956067;0.042215297467756985;-0.03099022867888039;0.0044843800105086595;-0.08278299907985343;-0.035208035942326354;-0.02716571238111376;-0.023395345126741462
A;6.3;-0.13466481671014452;-0.03896637919229384;-0.21174133408042128;-0.023885035309532787;-0.08606744145331269;-0.02429510489596165;-0.11735177736416103;-0.02654230284122483;-0.05278178433564518;0.043459388761712514;-0.029276780717134687;0.006033004986238932;-0.08585708321431618;-0.03462558855423126;-0.029594693669243943;-0.023513394457281178
A;6.4;-0.13990934537999067;-0.040204263771447035;-0.2164248617023845;-0.024573741495448553;-0.09190982281315241;-0.025174742945312856;-0.12082291421966218;-0.025443551858215452;-0.05337367473506893;0.044907525383078406;-0.027499978296775918;0.007638725135983071;-0.0889816289769989;-0.033966782475373325;-0.032013428669442456;-0.023658152809798993
A;6.5;-0.14506253536777414;-0.041408977539139746;-0.2207663546434262;-0.025143199035054575;-0.09769600334990847;-0.026068040568546058;-0.1240115375832036;-0.024172052946134004;-0.05397707990109912;0.04637257506387282;-0.025507225497980762;0.009288059902761825;-0.09194447098023284;-0.03316504398752951;-0.03419832444319626;-0.023748666252325856
A;6.6;-0.1498379419300251;-0.04253066283963558;-0.2243990640040059;-0.02553374002988784;-0.10341527616255042;-0.0270321698881828;-0.1267637871964249;-0.022744859064475653;-0.05471536552687184;0.04762972366772922;-0.023114547439754246;0.010956147669438088;-0.09446064898486695;-0.032119622716609175;-0.03585197802628537;-0.023675478752896106
A;6.7;-0.15421566273229792;-0.04356441767874242;-0.22733672619776213;-0.02575580616242279;-0.10909820150537675;-0.028122836318467126;-0.1291994230644431;-0.02122594272172873;-0.05575261778725704;0.0485339118540995;-0.02044076457582794;0.012567169382881271;-0.09659955184024582;-0.03080393843102236;-0.03698425757889634;-0.023394760372674517
A;6.8;-0.15820190269829748;-0.04451064389133097;-0.22963267087121175;-0.025828326534453216;-0.11481084043502421;-0.02942128382696363;-0.13149767978939164;-0.01969770432452722;-0.05731432570689643;0.048904213276387276;-0.01765232841982098;0.014026395068491793;-0.09849314050577807;-0.029188573474328905;-0.03763409887153335;-0.022851474328530186
A;6.9;-0.16161258578511495;-0.045339364794641845;-0.23113013165306273;-0.025739934155152522;-0.12036547001943931;-0.030921183655407303;-0.13355584352513206;-0.018199325411097256;-0.05935312637121637;0.04869759185914546;-0.014783471118654218;0.015265298651214954;-0.09991735610040253;-0.027208794871474762;-0.03764915478071784;-0.021995823552488192
A;7.0;-0.164299635598937;-0.046025972452160335;-0.2317372575845318;-0.025491741452273953;-0.1255254854001826;-0.03259410104601934;-0.1352801985463048;-0.0167707642213184;-0.06177793936998188;0.04792123440929741;-0.011910410774973484;0.01621850726752072;-0.10069284858683814;-0.024827397961557196;-0.03693879112641718;-0.020805465681228208
A;7.1;-0.1660010834869523;-0.04652844064113748;-0.23118253614017004;-0.02505071386682256;-0.1302134603797236;-0.03450905134289095;-0.13655807066797543;-0.01546371607254371;-0.0647261671780397;0.046370448918296336;-0.00896902339306302;0.0168340891303993;-0.1006336966732575;-0.021962489138599217;-0.035288839412321193;-0.0191713293544713
A;7.2;-0.16644680071979656;-0.04680319985551784;-0.22917248750743768;-0.024378046011379384;-0.1343424926466188;-0.03672236890200087;-0.13723770379116385;-0.014314114390478805;-0.06830257259639094;0.04386212054150129;-0.005848902080587859;0.017083030342960104;-0.09953274244246657;-0.01854200320098398;-0.03247683211009389;-0.016995472023566105
A;7.3;-0.16575966229760852;-0.046865641200153574;-0.22593677181172112;-0.023519643508266963;-0.13789927282592374;-0.039261384089714024;-0.13751413367243281;-0.013390075126233691;-0.0726633599322879;0.04032348075736447;-0.0027533609902315737;0.0169286264515065;-0.09773129928839586;-0.01465410697810876;-0.028755500156273595;-0.014314883942966317
A;7.4;-0.16416100591648175;-0.046747463721574345;-0.22180201583974068;-0.022533702017281554;-0.14097875962187634;-0.042157511892984445;-0.13766352384527614;-0.012754086407802845;-0.07800241483907833;0.03569794359047451;8.729636456852874e-05;0.01635109338686236;-0.0956947697133721;-0.010417233010150184;-0.024465983953320558;-0.011187801324138658
A;7.5;-0.1618002303390651;-0.046469455696250606;-0.2169749271108823;-0.02145601896862459;-0.1434597627663261;-0.04531140016341939;-0.13771334740285512;-0.012387164314438426;-0.0841309851303127;0.03017620882611527;0.0025839776701893635;0.015384144189017457;-0.09354810612045172;-0.005940452558075737;-0.019818242450859058;-0.007737855307626829
A;7.6;-0.15888318893179143;-0.046060500693695605;-0.21172669906592767;-0.02033194642013747;-0.1452069674335611;-0.048586767055739166;-0.1377126940951796;-0.01225922291322501;-0.09078093452376756;0.0240247525244901;0.004610563148044755;0.014060619493656223;-0.09141180112180658;-0.0013454286190870413;-0.015060545780113621;-0.004121453971726918
A;7.7;-0.15548759537784074;-0.04553754186596182;-0.2060601978191865;-0.019155899470088666;-0.14648359005304767;-0.05196937799033141;-0.1376828670714243;-0.012328075010853201;-0.09794214953083213;0.017307286120568532;0.006245886155675867;0.012439050524577722;-0.08929150581902645;0.003357404461240776;-0.01019283928500947;-0.0003499115889682436
A;7.8;-0.15163661600355716;-0.04490924759642545;-0.19990252272860687;-0.017909592799966623;-0.14752816369244948;-0.05543691732544054;-0.13758614978435801;-0.012540098685574153;-0.10556240732039468;0.010096035818432991;0.007617794447960458;0.010580314074569275;-0.08708636481007259;0.008183405926086795;-0.005139653862963778;0.0035780775996965275
A;7.9;-0.14754595620526856;-0.04420621902351374;-0.1935201589068647;-0.01663785224628045;-0.1484897294541;-0.058953786759495586;-0.13767087651242838;-0.012922000248111631;-0.11365460015702222;0.0024573380177845827;0.00850547425240851;0.008438498900380731;-0.08498349342726952;0.013090819207576043;-9.549044629908465e-05;0.0076080601052199714
A;8.0;-0.14342612027551072;-0.04345955191838313;-0.1871685749710188;-0.015382919920538862;-0.14955410100155175;-0.06250964290397598;-0.13819015459422923;-0.013504868735335851;-0.12228465884478379;-0.005576707496727451;0.008700025918811943;0.005970541171032462;-0.08319958627137192;0.018041251500444222;0.0047501489976089495;0.011702752205614342
A;8.1;-0.13935398901691753;-0.042673264665161525;-0.18102639713939617;-0.014180685650902802;-0.15034031889397237;-0.06595301099518136;-0.13911282744772846;-0.01427912833669498;-0.13110841590104505;-0.013760635607365845;0.008059353239347672;0.003157566708681614;-0.08168572199395285;0.022954784125318817;0.009243977567014339;0.015722416058423283
A;8.2;-0.13541081835248625;-0.04185151091691264;-0.17530278223107065;-0.013073093307446992;-0.15032393588244886;-0.06910550571883545;-0.14035046844535226;-0.015229608312419263;-0.1396984515525559;-0.021791299122583485;0.006435936068475243;-7.6037321338207065e-06;-0.08040371919316591;0.027716548352005876;0.013190469872367272;0.019491197658586756
A;8.3;-0.13155237141140397;-0.04099786738378075;-0.1698536329580429;-0.012027028304829601;-0.1495473981775981;-0.07195968217942372;-0.14164524307066606;-0.016267650314268245;-0.1479400336381259;-0.02955271197418896;0.004118010343064971;-0.0033763373730675283;-0.07928771258449396;0.032280460870945715;0.016655260784464554;0.022989237039274357
A;8.4;-0.12769448353403456;-0.040112940143467224;-0.16445274962455114;-0.010992851753120592;-0.1480875761586431;-0.07451553100069463;-0.14264878154838145;-0.01727498547984707;-0.15570737442218963;-0.036921509240095185;0.0015168874054034276;-0.006746475646961736;-0.07823871837607843;0.03659543398493703;0.01974997134850498;0.026202603219775078
A;8.5;-0.12398716853783154;-0.03923083766293467;-0.15921807063522886;-0.009980765983141016;-0.1459797166222092;-0.07676001998253268;-0.14323416121544486;-0.01819109985846401;-0.16291313762504334;-0.043729929009706625;-0.0012534807518787827;-0.009981649154790828;-0.0774753676911164;0.040523329487785587;0.022308666092881513;0.02904701866440118
A;8.6;-0.12059244837179928;-0.03839044552162485;-0.1542434301984339;-0.008993980082022901;-0.14343604182006942;-0.07871885398129175;-0.143308610177592;-0.01895278606285733;-0.16956741722919;-0.04986051397425051;-0.004042081345941806;-0.012932210375506958;-0.0772471862739561;0.0439452244995433;0.024193818490061636;0.03147429470172769
A;8.7;-0.11760150498011934;-0.037606561898701374;-0.14963737721806325;-0.008048267207216409;-0.1402494062914964;-0.08026253862509392;-0.14270692956398445;-0.019483875719746413;-0.17534621517828797;-0.055037305148814664;-0.0067408916981191724;-0.015468556639090192;-0.077600251656742;0.04671766266867605;0.025238578043313753;0.0333292184135312
A;8.8;-0.11511845603384585;-0.036891259033528634;-0.1455651214982523;-0.007173424766862224;-0.13615551678682403;-0.08124320294038889;-0.14134919195197826;-0.019740042638507038;-0.1799193665786839;-0.058996150583424445;-0.009364804189051695;-0.017523483936579987;-0.07856879425727259;0.048712702940092;0.025254134925349225;0.034452274832407204
A;8.9;-0.11304625838159343;-0.03624059081993414;-0.14173824310990346;-0.006309026797076012;-0.13166738381317855;-0.08171748247299915;-0.1391016889132375;-0.019629968046105617;-0.18337833825493977;-0.06177165282708641;-0.011529617172273632;-0.018952088744605078;-0.07997843443984243;0.05000423199701709;0.024484879868814202;0.03494088301290321
A;9.0;-0.11121143687208535;-0.035635152062318154;-0.1377907324993366;-0.0053837992462859585;-0.12730425858890237;-0.08175507572320906;-0.13586247450017797;-0.019078807073491744;-0.1858585522905093;-0.06347150368792409;-0.012860240510180393;-0.0196521814338817;-0.08155344094914341;0.050724930685802416;0.023261596784480698;0.034934391714091184
A;9.1;-0.10963876865251732;-0.0350790064159614;-0.13373260304176626;-0.004400993258434127;-0.12340033091786284;-0.08144254310835075;-0.1318718849418461;-0.01815958905256143;-0.18762558126522366;-0.06426964231739962;-0.01354382263945983;-0.01975276229171108;-0.08329277715662453;0.05098379455205948;0.02167605166309694;0.034552709113819136
A;9.2;-0.10835746087939224;-0.03458003352448902;-0.12956130169258007;-0.0033581236039357254;-0.12038879045276774;-0.08092405565765137;-0.12738971431565838;-0.01695649345379313;-0.18905592589965792;-0.06440369688926562;-0.01376577267355028;-0.01939286606211954;-0.08523722354089536;0.05091340991190263;0.019849680017372417;0.033963173569392824
A;9.3;-0.10729732697288896;-0.03410525097549133;-0.1253854936542036;-0.0022881312757518923;-0.11784557517795735;-0.08013298768379129;-0.12263853351141307;-0.015578280683750778;-0.19008940946517305;-0.06394534022118781;-0.01389907824195069;-0.01879708669639446;-0.08726166742827868;0.05057564982491858;0.017747256072850437;0.03315123425533817
A;9.4;-0.10642757344196996;-0.03362607564754527;-0.12139739340633171;-0.0012401320211272715;-0.1152174716060903;-0.0789833740501742;-0.1178605074219321;-0.014151424745001862;-0.1906239602583747;-0.06293448717283345;-0.014408004606175806;-0.018217376774229965;-0.08929438833559811;0.050001814361041896;0.01526186270212837;0.032069027297630726
A;9.5;-0.10562663384227688;-0.03313575050730333;-0.11732064391174357;-0.00014587305515112448;-0.11290174089294891;-0.07763497240123507;-0.11287912157466784;-0.012607312240292323;-0.19088281408622998;-0.06150001235158031;-0.014902251251348225;-0.017528621574032566;-0.09126168154282555;0.04928179899781293;0.012644735333169344;0.03087538895345232
A;9.6;-0.104747900019454;-0.03262208863135352;-0.1128450227996558;0.0010696297602972304;-0.11132514672310645;-0.07623301957502981;-0.10747619552183996;-0.010854228841378877;-0.1910548868934483;-0.059753151699783125;-0.01489609302937775;-0.016558655808215583;-0.09306233421299437;0.04850084342921024;0.010160812245337825;0.029722827504437
A;9.7;-0.10392685160986725;-0.03212630080745282;-0.10797890130762156;0.002420605523416386;-0.11112669500833106;-0.07496960292369237;-0.1017222952174468;-0.00890510746495976;-0.1915192078303094;-0.057828713177127344;-0.014347918917148816;-0.015284470357634583;-0.09490886327373982;0.04770389282379095;0.00789078909425478;0.028764833649290278
A;9.8;-0.10334789649985487;-0.03170040144284125;-0.10275047106285906;0.003919552448025998;-0.11320160841887084;-0.07406787053422592;-0.09574287416957161;-0.006772280800038777;-0.19275076443823536;-0.055890514948948145;-0.013190943858815335;-0.013658211390616293;-0.09707494603156563;0.04694710753957776;0.005919017780761537;0.02818909437647399
A;9.9;-0.10304529391460249;-0.03131364597005737;-0.09747249001681335;0.0054858963582584686;-0.11729181013357493;-0.07337143513444011;-0.08998191292335567;-0.004604498759588793;-0.19465305126107635;-0.05398239776936076;-0.011931806746173224;-0.011916555772180204;-0.09952655723454429;0.04626288726011163;0.004063429787102946;0.027929755663566258
A;10.0;-0.10306914337930428;-0.03092274376658466;-0.09261541640932536;0.006994121130274422;-0.12279669482772348;-0.07262422082076903;-0.08509183698036282;-0.002640217966475289;-0.19702367464372061;-0.05214483021595684;-0.011452679722091408;-0.010477128695740245;-0.10218280971159244;0.04568791199179856;0.002036185418981873;0.027853883985051953
A;10.1;-0.1033759396317735;-0.030496234575789538;-0.08823381692730359;0.008424355267665717;-0.1302008688064863;-0.07180208099643992;-0.08142520574081691;-0.0009364912992693153;-0.20002639948392642;-0.05054538210676984;-0.011791478805018352;-0.009379796443269584;-0.1049617609141591;0.045353000445091496;-0.00011765191674850684;0.028059715274254327
A;10.2;-0.10385840710781813;-0.029984378670923073;-0.08436746581121679;0.009755120170795273;-0.13978658794435417;-0.07083189334919826;-0.07932831310090083;0.0004474361632078594;-0.20373115467780978;-0.049338565148174585;-0.01299868398256987;-0.008683443769693322;-0.10769913391166464;0.04539301665749673;-0.002358049312871202;0.028614505149967773
A;10.3;-0.10462476084611994;-0.029384783754293542;-0.08134388303527351;0.010895705228311847;-0.15134319780116567;-0.0696621045246324;-0.07947145510470888;0.0012476019440859076;-0.20830583093706123;-0.048730800323287804;-0.016055523428861296;-0.008896659505308269;-0.11036994601899819;0.045936296726761805;-0.00478033224861818;0.0295461066214735
A;10.4;-0.10579355064528739;-0.028713243544909117;-0.07938476927274296;0.011787487686544473;-0.16481416382731373;-0.06832522559582888;-0.08235170588199758;0.0012568294185966167;-0.21398908849504372;-0.048917927185890386;-0.021737962771096575;-0.01043022286034323;-0.11300108144258392;0.047097298498739004;-0.007411217744535792;0.03092361369117458
A;10.5;-0.10728826353911125;-0.027904732783826436;-0.07889659543322836;0.012313199519823126;-0.178713630317074;-0.06650078013125271;-0.08843008601727198;0.0002317359747101566;-0.22031575254264824;-0.049860169722983017;-0.031062982904693337;-0.013807786265049304;-0.11536781804036833;0.048867390844303804;-0.01055350629478835;0.03250535652879538
A;10.6;-0.10903760297149567;-0.026901472446134722;-0.08027071456906665;0.012362263962094167;-0.19133620060951984;-0.06386375633281238;-0.09801774824536036;-0.0020469355242782594;-0.22672043512314277;-0.05143951197257013;-0.04501171775254417;-0.019527868881522803;-0.11726024366888321;0.05118255345061873;-0.014528564294775226;0.03400334110547565
A;10.7;-0.11088693055643284;-0.02570163511532142;-0.083106124908634;0.012051227907501572;-0.20305523922212687;-0.06054946710418263;-0.11042944075754813;-0.005306143707739075;-0.23315403040157967;-0.053538414876913576;-0.06247373948257437;-0.027061790840224198;-0.11868052536777407;0.05398277791656381;-0.01913565953646934;0.035490164186036566
A;10.8;-0.11261593740973841;-0.024295160207654876;-0.0868418700528335;0.011541163161499002;-0.2146386719544715;-0.05672696180324621;-0.12473770585787114;-0.009138989792474517;-0.23956607846945344;-0.055996798281307436;-0.08175187081214755;-0.03558189609615281;-0.1196433808835935;0.0571846057645049;-0.02409920686066558;0.03707155718380917
A;10.9;-0.11429573107390212;-0.022757946169826182;-0.09108168361543223;0.010956135654562216;-0.22679062262220673;-0.052710935309924434;-0.14017979652047785;-0.013302010627653127;-0.2461596782874641;-0.05870427846724735;-0.10193617697790533;-0.044631986165303505;-0.12035924128841335;0.060693805444886895;-0.029139255874047976;0.03888922569639908
A;11.0;-0.11602079610282612;-0.021182967958823573;-0.0953359083038241;0.010448382741980344;-0.24063475567907433;-0.04890105244642462;-0.1559025974535535;-0.017496107310769782;-0.2532730220571635;-0.061576002483789694;-0.1218583653146321;-0.053626955038176494;-0.1211016221474015;0.06442931962251608;-0.03389698027935317;0.0411593022915957
A;11.1;-0.1176348690680229;-0.019512263438852928;-0.09955817210389561;0.010030374620857208;-0.2562821131492571;-0.04515154446853131;-0.171682581471718;-0.021570268408004578;-0.26060544592917845;-0.06447705963975925;-0.14078085273451285;-0.062170908744002995;-0.12180834199032953;0.06830793212147124;-0.03841824649115555;0.04378750293354239
A;11.2;-0.11899702549893365;-0.017675581136469276;-0.1038616736581166;0.00966544400514957;-0.2733822906732476;-0.0412250026960117;-0.18752730240577287;-0.02548200702824066;-0.2677688691934491;-0.06728291230284156;-0.15846829370800986;-0.07010981983137299;-0.1223518555629095;0.07225494829710577;-0.04284428941521301;0.04660149184596318
A;11.3;-0.11984891532116082;-0.01562495472802894;-0.10783780958362144;0.009466740448581312;-0.29290055417843264;-0.03716238360781743;-0.20290981150820198;-0.028888055049448802;-0.27472192547899854;-0.06993859136577796;-0.173325983657996;-0.07666519579777131;-0.1226919414295149;0.0762690123805776;-0.04699412743547993;0.04970936481816368
A;11.4;-0.1198676185115104;-0.013291443729881891;-0.11108360092446756;0.0095389428969892;-0.31555148056285953;-0.032943157417731905;-0.2173821712623214;-0.03146353421333847;-0.2813481077267236;-0.07240262774552675;-0.18385748166160826;-0.08112768471918486;-0.12269901034741482;0.08037080971337951;-0.050710203717671876;0.05318386692609889
A;11.5;-0.11914043687341325;-0.010742862239846884;-0.11343131990185817;0.009922476887617604;-0.34077084671118885;-0.02877547147953452;-0.23066715580302666;-0.03322039590677828;-0.2877807813955322;-0.07464718453888675;-0.1905182465504081;-0.08373438166306602;-0.12236279153061425;0.08454692621312865;-0.053819306332643535;0.05703921420662317
A;11.6;-0.11786355298173024;-0.008113192595559093;-0.11457110179541452;0.010703906821248;-0.36806403062934834;-0.025063647579431025;-0.24223989389457912;-0.03415302872486414;-0.2943362201463756;-0.0766432550838052;-0.19379754097641988;-0.084761649665968;-0.12178835726967341;0.08877230296969607;-0.05602264538913304;0.06137931130524854
A;11.7;-0.11596126214016333;-0.0053856713306439374;-0.11459829431930268;0.011829854993720579;-0.3955550139503854;-0.02163532542923985;-0.25223770674337054;-0.03443095714784783;-0.30062942106469626;-0.07831573212791176;-0.19480934909036496;-0.08482330106039448;-0.12068089761103806;0.09301569002306653;-0.057410129862878856;0.06594043901353452
A;11.8;-0.11341199024239912;-0.002553582145484512;-0.11368862081627285;0.013224110775056586;-0.4210961539500141;-0.018320719245516814;-0.260853107357661;-0.034290383922592316;-0.3062745867488864;-0.07957901697976011;-0.19503167494753498;-0.0846926895744643;-0.11874533189526337;0.09722770013529702;-0.05810080465084244;0.07042102537618367
A;11.9;-0.11025488139685935;0.00023973257878084908;-0.11104934680030043;0.015125401007808126;-0.44542258888719555;-0.015653866929733473;-0.2667983939346521;-0.033367110903731234;-0.31157474810590813;-0.08031975381972312;-0.19305026872045877;-0.08378444311012534;-0.1162548484386039;0.10132929990310235;-0.05761915338882706;0.07511836727603871
A;12.0;-0.10649568959580513;0.002864903747284764;-0.10587727118368329;0.017777447829476323;-0.46970374890859024;-0.01410387755074649;-0.2688162424757614;-0.031245338894625663;-0.3167758292380737;-0.0804349879809485;-0.18699195176872552;-0.08132847183849135;-0.11352917982708766;0.10524567736951296;-0.05551617786436358;0.0803540279437327
A;12.1;-0.10247833812719209;0.005132258582056126;-0.09775037399776743;0.021320162294948597;-0.49456722826667343;-0.014326026302252215;-0.2659951957533908;-0.027804159799944328;-0.32251387622592553;-0.07987146493502917;-0.17674500972178553;-0.07721800730091133;-0.11095096032582141;0.10889035064200314;-0.051365923414268266;0.08640792462079205
A;12.2;-0.09861628084984475;0.006833634817338785;-0.08627362516582804;0.02589518368925159;-0.5212047449338714;-0.017014544475217663;-0.25743758532538874;-0.022897550851941118;-0.3295409181434067;-0.07860104951356184;-0.16192976216529187;-0.07117540005682255;-0.10902342038361157;0.11218414857666015;-0.04473917117810089;0.09363533262129198
A;12.3;-0.0949326024845063;0.00804381901178286;-0.07208461234099528;0.03129856487928517;-0.5488360722410341;-0.02158842502028424;-0.24421828954844615;-0.016843986054523974;-0.3372945379739868;-0.07667884478521425;-0.14345601180208487;-0.06377332850007189;-0.10761031011114186;0.11514031755706089;-0.0360666503657463;0.10171448488780732
A;12.4;-0.09133978455765179;0.00895627101793317;-0.05635558324455969;0.03715099194057547;-0.5753493867632538;-0.027055970586203015;-0.2282667675503136;-0.010248879489544116;-0.3448595991709157;-0.07419700376471039;-0.12363305242183179;-0.05618472344332448;-0.10621306306122413;0.11781590932124497;-0.02611574697665575;0.11001049986879008
A;12.5;-0.08779797191761474;0.009613959601144417;-0.03936730671737898;0.043380702100269675;-0.6018552266613573;-0.032998211961667856;-0.2100911785303452;-0.0030707508191021304;-0.35189466179855977;-0.07121009874424566;-0.10128560160168318;-0.04785279990918678;-0.10497411993178574;0.12024858857995979;-0.015181081530732499;0.11851963966718304
A;12.6;-0.08420004555027316;0.010093207596279408;-0.021491184146965603;0.049880886067617425;-0.6291696789975239;-0.038824401352460125;-0.19044284662582323;0.004685541900975698;-0.35783968559334023;-0.06778498617559126;-0.07532526123745109;-0.03839340180240369;-0.10395545988970589;0.12249496508022117;-0.0036659389893063388;0.12715082847921266
A;12.7;-0.0803838526302807;0.010634708832849782;-0.003971072796288944;0.05624481917138047;-0.6537669116764273;-0.04388516600770842;-0.17104920058505524;0.012314201919956025;-0.3622472051160234;-0.06398680805295576;-0.04984457595483677;-0.029329127792943832;-0.1022602726741848;0.12464714820626166;0.0077697250666057815;0.13521399504209963
A;12.8;-0.07618287328187301;0.011452051935896934;0.012168292121200297;0.062142075502293004;-0.6725519544684737;-0.04781185752290118;-0.1531381447543596;0.01923321229287933;-0.36503077669123984;-0.05986766424074297;-0.02858209194955874;-0.02181467270180326;-0.09902135005953117;0.12678026924723707;0.018655897998893334;0.14217936378515184
A;12.9;-0.07140999032813644;0.01280071081012868;0.025530514192225517;0.06708759716974377;-0.6810274243604635;-0.04949564072729262;-0.13911339908966935;0.024522424739359838;-0.3650075226536488;-0.05553450582676067;-0.01600638855043321;-0.018402525616700638;-0.09329060519732302;0.1289820568043758;0.028101728634628786;0.14708901785188244
A;13.0;-0.0658285847004283;0.014966872120050878;0.03471679499902547;0.0705902080922527;-0.6743327808538409;-0.047900197545492684;-0.13132268039283468;0.02721751000956263;-0.3610558477928679;-0.051091082658248244;-0.01708872700039138;-0.021680116175659347;-0.08401793708702865;0.13133194674281445;0.035247831076288705;0.14894981845147548
A;13.1;-0.05934103172828653;0.017870552492290637;0.040472867808201585;0.07292566234820663;-0.6561607853212583;-0.043508343295997065;-0.12832066438601042;0.027943206597891734;-0.35390783398667613;-0.04657278457606062;-0.027895341502338578;-0.02944402571579552;-0.0716771760480932;0.13377565317460838;0.0405111066563304;0.14844223954005042
A;13.2;-0.052055224586905924;0.021264000928258087;0.04414013501507097;0.07457043405114039;-0.6328330300527445;-0.037032730533750335;-0.1279309560241655;0.02770709430625873;-0.3443891794199746;-0.04201036263417213;-0.04177693811655625;-0.03868706131499067;-0.05747770325450663;0.1362202461869071;0.04456172815500081;0.14665322923194957
A;13.3;-0.04375508418120422;0.02521652240168426;0.04620690480424283;0.07571045454843106;-0.6063906684404752;-0.029350104449437753;-0.12865763540103514;0.0269004496479881;-0.33368163533685746;-0.037395230669398316;-0.05778405451248217;-0.047217853557240175;-0.04146378488918234;0.13862490347971224;0.04787067336253403;0.1440839893475454
A;13.4;-0.03426536330995633;0.029727595702605303;0.047393647973766884;0.07663574358885517;-0.5800912852463922;-0.02155366521189328;-0.12846764692483403;0.026160802700026187;-0.32331533351740616;-0.03270071526587914;-0.07341296733004962;-0.05216397997933675;-0.02385306353583516;0.14090693641229368;0.051071263901594666;0.14150562006157674
A;13.5;-0.024268405651169056;0.03447995982828678;0.04807019097417742;0.07745101774975427;-0.557346884748491;-0.013374384511052995;-0.12765913178349853;0.025624969221930805;-0.3123535648746134;-0.02799932250809123;-0.08575375876427416;-0.054183131228974335;-0.0062150830293998816;0.1430337188822628;0.05403787474999544;0.13915765056467055
A;13.6;-0.014472199702023847;0.03922397430819302;0.04809120456896254;0.07807396558105939;-0.5390589191698973;-0.00426586023598019;-0.12761304786938843;0.02502037821013281;-0.2992158026838494;-0.02336703153597597;-0.09441408778791344;-0.0552275191714553;0.010138677886191605;0.1450147094835763;0.05629823122087396;0.13683040309335026
A;13.7;-0.005434566127102469;0.04342037250520914;0.048568574479351145;0.07898290746629999;-0.532501303977764;0.005549008316113602;-0.12678239519208212;0.025486809594700288;-0.2841880192485381;-0.018837009607939326;-0.08942821237767451;-0.05324730637106889;0.023506294161004693;0.1466515438200484;0.058217672770114026;0.1357567812423559
A;13.8;0.002205278983575809;0.046568937750171235;0.050504692777381344;0.08054480601595948;-0.544195708650381;0.016125591852588217;-0.12408143100502378;0.02787343732264458;-0.2671992308793696;-0.014467772852164718;-0.06300612164498265;-0.04760021425404559;0.032176286613982086;0.14787749366200043;0.060029550037902224;0.1368573459719109
A;13.9;0.008899030404138975;0.04901147354862201;0.052883213461247136;0.08243113783035949;-0.5675835542827922;0.02700287838697979;-0.12076339269962122;0.03153294375355875;-0.2480972530662262;-0.010219076740168642;-0.02170174087182708;-0.039253890561006255;0.03748954031792495;0.14878600698925393;0.061300843190805976;0.13940249603430122
A;14.0;0.015633679627976127;0.05129453367395964;0.0545530411582249;0.0843153661474716;-0.5949268111729326;0.03736693214566156;-0.1172767613202359;0.035894716437187;-0.22794347070233012;-0.006026105289516748;0.027238870159139478;-0.027585903591594185;0.041914666761056374;0.14943357834400262;0.06184105895820102;0.14277051476017166
A;14.1;0.022291599108918758;0.05403050856136549;0.053906836915076806;0.08522726872128117;-0.6164452925359433;0.04833893051294691;-0.11733556149893465;0.038493550938946575;-0.20468810755922817;-0.002013669991151934;0.06405463552694562;-0.02081784101414963;0.0464488096024005;0.15059476144261574;0.06059343335561107;0.14444506722605954
A;14.2;0.02886466320412029;0.05779581156213531;0.04906620059427702;0.08421443924419392;-0.6202133347755668;0.0605886673745899;-0.12514550455308493;0.03696880051693885;-0.1760806090638356;0.0017019717405828416;0.07007597828792536;-0.027933162685848667;0.05240880222694644;0.15286801799971372;0.05638485672777471;0.14196814520842005
A;14.3;0.03639369422847838;0.0627411043540369;0.040644352596112876;0.08163003427696225;-0.6099970195404637;0.07339745642573425;-0.13674236100444115;0.03228831924080189;-0.14635855286834354;0.005072094281028505;0.05088062983040856;-0.04431689956518425;0.061848618767917696;0.1560752021236651;0.05035704101402394;0.13661614965573765
A;14.4;0.045566639503105355;0.06891586797022464;0.029669489012711603;0.07785002533341556;-0.5932384063373136;0.086430569605074;-0.14736999098821224;0.025516393177802854;-0.12008673959720861;0.008037875052968602;0.01249301017199933;-0.0613463200009694;0.07618989935170362;0.1601657513134398;0.043839695010897906;0.12975055482357356
A;14.5;0.0577049096470621;0.07585398280486833;0.01594789793245921;0.07377018624950105;-0.566694090138236;0.09590759341787858;-0.15464321806430625;0.019481683315885512;-0.10035480003826047;0.010771912653537052;-0.023939157574150993;-0.071065718352612;0.09786547062714979;0.16364753540809351;0.03748893601793335;0.12408049642608887
A;14.6;0.07401064640537847;0.08312465726417262;-0.0005469077533932776;0.0702714008285319;-0.5299728027761095;0.0986021657057965;-0.15534872903520403;0.01670245671524495;-0.0908159084385054;0.01351522983765241;-0.037607247737900584;-0.07509619948704005;0.12913702981013175;0.16514199583859113;0.03211989425516415;0.12232082935374233
A;14.7;0.0926312717637705;0.09086394769412887;-0.021078248587783843;0.06618361886291568;-0.48024059351211057;0.0961211329811349;-0.15322940876020885;0.01457613657051482;-0.0882855953281978;0.0162633609514673;-0.0490713833393428;-0.0700767110138496;0.16842490715374359;0.1656902682530521;0.026421136118745192;0.12150713034069627
A;14.8;0.11094575743308477;0.09895463761465084;-0.04783115586051023;0.06005786501471633;-0.4078529772538556;0.09307727547520317;-0.15617319758590886;0.009815566256019537;-0.08582346838138721;0.018991120903921077;-0.08423156691567657;-0.05173949418310175;0.21302837063770852;0.16628488526611718;0.01793523937623709;0.11758157633312938
A;14.9;0.12694218997183992;0.10823390215313577;-0.08071528684212725;0.0503947538849121;-0.32527276749823975;0.09907194880388892;-0.16326478023315683;-0.002922247907878539;-0.0837649135209525;0.021724476069055143;-0.17731226489529184;-0.07110766926887702;0.26110495492361396;0.1693336227938551;0.006529421698805438;0.10667919350935118
A;15.0;0.1382670475474439;0.11937602697951633;-0.11960865013050914;0.03564964935924686;-0.2459447672386138;0.10963622985164534;-0.17404022641672845;-0.02855241766387917;-0.08196001598454294;0.024416768343350936;-0.3531117938739319;-0.1489566427365555;0.31037370462676916;0.17722780169904984;-0.00804314670914641;0.08540940381884132
A;15.1;0.14383491846712593;0.13073612344156116;-0.16706662019612772;0.016298577488517152;-0.14982066223681956;0.14921947484114817;-0.19861000660750028;-0.06608286979211608;-0.07179010771484673;0.02715783479248146;-0.6102660091488573;-0.35332409897263206;0.35929888359382245;0.18795858425693157;-0.028480245976538088;0.05349081720963178
A;15.2;0.1433118521378911;0.1405397494537426;-0.2251695184031055;-0.006604223843533763;-0.00743917482251788;0.19132647853204388;-0.24568030148145148;-0.11303889757707442;-0.0457346591571971;0.030047363364351876;-0.9009755618687239;-0.5317115511751086;0.40705428025902224;0.19893235428662281;-0.05693741756576132;0.013560065749519623
A;15.3;0.13490605765940944;0.1463409388150414;-0.29639179628965096;-0.03242640185624612;0.21180239125461187;0.22959903597478126;-0.3261685870975606;-0.1632503059053958;0.005601870841572487;0.03285549092210149;-1.1959929431570702;-0.7121070634611318;0.4515278666033775;0.20727197650015716;-0.0962487415224551;-0.03277491484628725
A;15.4;0.11721139948763226;0.1454819566506731;-0.38304879075084974;-0.060229274335646066;0.49038603582446794;0.24003184036244019;-0.4512349193595355;-0.213085306049136;0.09047433738316446;0.03533590165410683;-1.4557501504291914;-0.864872656662321;0.4907583922425811;0.20993170630873736;-0.14916885949285152;-0.08177911181268471
