Condicao;Tempo_s;Ch1_HbO;Ch1_HbR;Ch2_HbO;Ch2_HbR;Ch3_HbO;Ch3_HbR;Ch4_HbO;Ch4_HbR;Ch5_HbO;Ch5_HbR;Ch6_HbO;Ch6_HbR;Ch7_HbO;Ch7_HbR;Ch8_HbO;Ch8_HbR
A;-20.0;-0.23729178406344964;-0.26890669304187576;-0.9274966677947027;-0.32443736890478014;-0.3598825887688326;0.05413499867505012;-0.1204734623623504;0.07756982259029765;-0.2703158604613023;-0.12819134815480826;-0.3743326897136745;-0.2960204037798908;1.4980480439492787;0.10831588530425318;0.5229461017522485;-0.8494892910838292
A;-19.9;-0.2520299160898949;-0.26377647001527826;-0.9231683103644954;-0.32240757383089846;-0.35001073239472014;0.059522860403602884;-0.1379269753554488;0.0719765537845456;-0.2740856701819929;-0.12796579541579778;-0.3850652671239916;-0.30094934893513825;1.4976308742010653;0.13224274456385476;0.5311173904941713;-0.7924024001498333
A;-19.8;-0.26620742054982927;-0.2584205730093565;-0.918060908263814;-0.32011287453311255;-0.3397719984399461;0.06508165142912592;-0.15485690159459603;0.06649331529873259;-0.27768390725268066;-0.12776821154328122;-0.39544524911796497;-0.30558474143170544;1.49745976230479;0.15510109302906816;0.5394156681120927;-0.7354417079049096
A;-19.7;-0.2797220961652398;-0.25280403567907417;-0.9120416251011614;-0.3174967797005941;-0.3291305839432752;0.0708316176504371;-0.1711685353871974;0.06115276062309505;-0.28108959841677805;-0.12760239444145727;-0.4053771535139645;-0.30988237365891114;1.497609258603009;0.18245570338164274;0.5478885637799316;-0.6787023043692093
A;-19.6;-0.2924736864722144;-0.2468787503971308;-0.9049349449840651;-0.31448528566019185;-0.31802648520418186;0.07680752574224936;-0.1867714410560814;0.05598158583839297;-0.2842923919655993;-0.12747421183251006;-0.4147636257259957;-0.31378436884492555;1.498159131625342;0.22001056728326196;0.5565893989750403;-0.6221892277439487
A;-19.5;-0.3040897264343325;-0.24062464586843113;-0.8966761016027487;-0.3110460058134086;-0.3065487912056293;0.08294472980566292;-0.2012956465709586;0.05114838083556017;-0.2870991845665545;-0.1273677038391643;-0.4233085227514206;-0.3172889161601755;1.499256266185549;0.26377271196440777;0.5654631163129942;-0.5672054883591775
A;-19.4;-0.3142396089076005;-0.23405294789099695;-0.8872969851533226;-0.3071857849701445;-0.2948290687762949;0.08915548016906882;-0.21440543835354803;0.04681352027212471;-0.28931960812731194;-0.1272651360794823;-0.4307526765734062;-0.32042272822693607;1.501016460053763;0.3081694598829956;0.5744390973141895;-0.5150941406470464
A;-19.3;-0.3225096090893871;-0.2271108453197943;-0.8766433488559731;-0.30283657773187045;-0.28291428685966347;0.09539687139421016;-0.22569936292221832;0.04315499618569563;-0.2907573328152848;-0.12715142096897658;-0.436763758026399;-0.3231592968733914;1.503624971541151;0.3475503941193989;0.5834960124724393;-0.4671164420208065
A;-19.2;-0.32850975131430893;-0.21975797811926334;-0.8645934787722886;-0.2979428652752212;-0.27086542037843175;0.10161971401771819;-0.23479424578015767;0.040343373029966045;-0.29122193697502485;-0.12701163600910714;-0.44102815896512326;-0.3254808168557559;1.5072444705264898;0.37588782569324275;0.5925859716799868;-0.4245293853002776
A;-19.1;-0.33240206287541874;-0.2120611308013407;-0.8513175077649979;-0.2925714891316389;-0.2587404487818201;0.10780110049986114;-0.24183298603200326;0.03832280829684276;-0.29077801568990225;-0.1268523349904629;-0.44366436432146616;-0.3274241808796641;1.5118054641954641;0.3952921562707865;0.6017295814079473;-0.3870522067436353
A;-19.0;-0.334511498160194;-0.20410091040711276;-0.8370270864424825;-0.2868086664082705;-0.24656615174489627;0.1139423512246256;-0.2471207465559498;0.036965848581810956;-0.28957611206278244;-0.12668776000390958;-0.4449169646933444;-0.3290286740929882;1.5171877634570539;0.4099861244935914;0.6110054793282069;-0.35383445927001045
A;-18.9;-0.3350765936124107;-0.19599635089765144;-0.8220220570537071;-0.2807704448709636;-0.23446513147860193;0.11999080746746005;-0.25085220333788166;0.03619522268711073;-0.2876929509650328;-0.12652435857648525;-0.44496553029282615;-0.33036563335407165;1.523226329851818;0.4225615660010509;0.6202974410299786;-0.3246669086545353
A;-18.8;-0.33441438477678;-0.1878825365822232;-0.8066471860468667;-0.27459158266327144;-0.22256154501612224;0.12589624090046003;-0.25329664252979595;0.03590187511859311;-0.2852407001032482;-0.12637139445056889;-0.4440511667874576;-0.3315157413753833;1.5297227225069117;0.43609062513221986;0.629497706163531;-0.2991302556408195
A;-18.7;-0.33268665044037427;-0.17977556034134423;-0.7909569299910668;-0.2682968719782881;-0.21082973609463718;0.1316802196210105;-0.2546176264115793;0.036018464987396026;-0.2823117482315407;-0.12623783392389631;-0.4422899544098835;-0.33248096980928654;1.536657715724819;0.4501787265510342;0.6387368314694184;-0.27663047758580284
A;-18.6;-0.3299775255757993;-0.17167586102163312;-0.7749615006759116;-0.26189232229739545;-0.19924385906843378;0.13736177348956913;-0.2549023057414999;0.036509312219105805;-0.27896251399507843;-0.12612949154363173;-0.439736772493623;-0.3332541097915849;1.5440336564864943;0.4631864357462083;0.6481079777571992;-0.25680317477199477
A;-18.5;-0.3265869353028217;-0.1636184120965769;-0.7587715267075756;-0.2554271355986302;-0.187764672355077;0.14297428299346837;-0.2544527481575524;0.03724814829915801;-0.27535407663829314;-0.12606133783702722;-0.4366154613279216;-0.3338481214363842;1.5517980638312956;0.47509448195517967;0.657814242302055;-0.23860219347246936
A;-18.4;-0.32280227612078516;-0.15562951218980015;-0.7424775215057275;-0.2489429353156405;-0.1763430406210995;0.1485560229771843;-0.25356087292030643;0.03811263722720626;-0.27164464207059424;-0.12604788889303364;-0.43314008101075796;-0.33427044990103516;1.5599052620826157;0.4857545871634672;0.6680601755192548;-0.22098528010523655
A;-18.3;-0.31872085010208995;-0.1478197146008302;-0.7263393999707084;-0.24253477794096323;-0.1651363918581379;0.15403325847500415;-0.25226558667223614;0.03908750346973666;-0.2678326789037966;-0.1260881923257391;-0.42937826765821163;-0.3345876072230509;1.5681725789908167;0.4952074380714082;0.6785234066433219;-0.2043459402503629
A;-18.2;-0.31443877901496986;-0.1403389935013859;-0.7107060183740019;-0.2363292022439829;-0.15436945972850014;0.15929699487984328;-0.25058480652880827;0.040167078574319115;-0.26389316864614276;-0.12617889368289026;-0.42539756073232105;-0.33489389796127034;1.5763639948841712;0.5037501314255488;0.6887560607625716;-0.18935733842357472
A;-18.1;-0.30994116348956524;-0.1332483323506013;-0.6957211491764657;-0.23037708798031975;-0.14415540150998263;0.16429259602649138;-0.24846029497847172;0.0413773371642141;-0.25978575677156357;-0.12631473753215028;-0.42117882951895225;-0.33522582864492056;1.5843570982666524;0.5111965746073408;0.698454328559249;-0.17657487031158503
A;-18.0;-0.3051870924241964;-0.12661415379706398;-0.6815376719847679;-0.22473152349983838;-0.134625576869011;0.1689553812289435;-0.24580158024366655;0.04275739932054301;-0.2554513349755476;-0.12648853016331918;-0.4166830104713739;-0.3356238655633734;1.5920150564657503;0.5172681851426386;0.7072515346524755;-0.16671531789894622
A;-17.9;-0.30041485708146887;-0.12056956590071444;-0.6684857672855822;-0.2195176246466426;-0.1259294425063877;0.17321631623203881;-0.24279758899098264;0.044231834578615015;-0.2509574811227173;-0.12670563806580892;-0.4120889629770197;-0.3361752294982936;1.59916223257268;0.5219471852656947;0.7149951761976361;-0.15968114323135563
A;-17.8;-0.2958879317324188;-0.11522115735181426;-0.6568431770590095;-0.21484338931674873;-0.11816398922447391;0.1770330632632966;-0.2396810116768478;0.04570790340389608;-0.24640108532290128;-0.12697396738545397;-0.4075956354805199;-0.33695152393469585;1.6056711082293686;0.5252668084764958;0.7216735578680353;-0.15507202973382928
A;-17.7;-0.29182292333091553;-0.11072638174831084;-0.6469849329780173;-0.21084795804058043;-0.11152681685435173;0.18031312851254278;-0.23659761500183701;0.04712493919685401;-0.24182205184066685;-0.12729596063005166;-0.40336539589004383;-0.3380528721713143;1.6112975549805038;0.5270654038354587;0.7269470057082161;-0.1530982483984218
A;-17.6;-0.28843942406467704;-0.10723079422793358;-0.6392635497148556;-0.20766311292254436;-0.10619488634856822;0.1829730263996443;-0.23370650615692684;0.0484181602923357;-0.2372686808737452;-0.12767475897478242;-0.39956370719431455;-0.33957452698876067;1.6158302209571511;0.5272393742135888;0.7305563699966378;-0.1538578353673028
A;-17.5;-0.28570052488982434;-0.1046715341330966;-0.6335621196258963;-0.20524927809518623;-0.1020836629663533;0.1850556757165247;-0.23099610240635465;0.04959712749535172;-0.2327544758615705;-0.1281085773137609;-0.3961574293244581;-0.34147948004258;1.6193378822114957;0.5259103910515641;0.7326237493687371;-0.15714203001108906
A;-17.4;-0.28346531258796315;-0.10292970595238948;-0.6296279498554052;-0.2035154259193579;-0.09904968769935607;0.18663313134797743;-0.22836435664691596;0.05070703303957158;-0.22826228954374006;-0.12859208325485305;-0.3930327283172397;-0.3436916219597481;1.6219330621595294;0.5231890957955931;0.7332592686336019;-0.1628503308001159
A;-17.3;-0.2817237353312221;-0.1019010295922147;-0.6272710885280492;-0.20239936168837236;-0.09693059827664952;0.1877809192871216;-0.22587118086623997;0.051735379290661854;-0.22384604540427588;-0.12912750455778932;-0.39017992232518495;-0.3461602486622355;1.6238334459767456;0.5194333567846914;0.7329663619054996;-0.1702653745803957
A;-17.2;-0.28043186186550706;-0.10145082511740444;-0.6262335592958914;-0.20181417218423015;-0.09552484442674425;0.1885935122896858;-0.22355554349008416;0.05267880084115495;-0.2195563177010591;-0.12971640959523478;-0.38756352599147026;-0.34881570097657444;1.6252969846363854;0.5150359690117852;0.732306515501425;-0.17861145856016236
A;-17.1;-0.2794791310237903;-0.10152870531551272;-0.6263946544533168;-0.2017131809350552;-0.09479163382775413;0.18909520894282483;-0.22129882476546409;0.05358066768846803;-0.2153538318098942;-0.13035145564899953;-0.38509377097438646;-0.351617377855318;1.6262735444356746;0.5098689325957246;0.7310332142707168;-0.18821039685095187
A;-17.0;-0.27879128344618387;-0.10211323308854059;-0.6276979591851468;-0.2020730976662417;-0.09472579166404094;0.18929157078476422;-0.21900988115619785;0.05447269854650383;-0.21120481570980676;-0.1310261753263684;-0.38270985828778126;-0.35454487254959277;1.626685703742579;0.5037751773549286;0.7288737653502411;-0.199409790702207
A;-16.9;-0.27818199510268027;-0.10310407170734592;-0.629908396714705;-0.20280492545883622;-0.09522971836555261;0.18923649001023657;-0.21650707733555158;0.055423751590301995;-0.20705134479540988;-0.13173044000670053;-0.38026358665080284;-0.35752303670066654;1.6265186299970615;0.4966297480836288;0.7255843599591847;-0.21256044841569288
A;-16.8;-0.2774628520009106;-0.10440651304548432;-0.6327986118094628;-0.20382170029621616;-0.09621529674279872;0.18897913175641134;-0.21360210988761547;0.056503932576853266;-0.20283098471640137;-0.13245376262037079;-0.37760554723489226;-0.3604793392820793;1.6257413593643815;0.48828156731575056;0.7208789199903212;-0.22807077933975162
A;-16.7;-0.27672460491743145;-0.10596161777324564;-0.6362909889307646;-0.2051044382609657;-0.09756071504130848;0.18856650443829315;-0.21046550483793652;0.057659838255397444;-0.19863326317994723;-0.13320276544567822;-0.37480937088997424;-0.36340700719328045;1.6246124103270612;0.47916242471377934;0.7154639168882975;-0.24497348040928468
A;-16.6;-0.2761204830719155;-0.10769958051786777;-0.6403089124077184;-0.20663914305431774;-0.09910642847253115;0.18805967855153805;-0.20736189664263432;0.05880777284278493;-0.19459173353199422;-0.13398850076059343;-0.3719991501590547;-0.3663051124280685;1.623499260608825;0.4699062885387679;0.7103756197310664;-0.2618435046255687
A;-16.5;-0.27575712090301785;-0.1096080938909818;-0.6448557974331521;-0.20843265706596892;-0.10080001427242014;0.18747278482802265;-0.20444535769293953;0.05989315212233204;-0.19077923779494377;-0.13481666723193397;-0.3692612225107872;-0.3691896998455937;1.6225497456669942;0.4608059225980523;0.7060674604622417;-0.2780180813663389
A;-16.4;-0.27577090244990554;-0.11168086013093781;-0.6499538271608207;-0.21049982641919307;-0.1025887141018127;0.18681764162296366;-0.20190771148330172;0.060848015013938106;-0.18728358696221648;-0.13569473119364783;-0.36670627179498094;-0.37208532736186073;1.621940611960147;0.45220994341121523;0.703093802317099;-0.292699866774929
A;-16.3;-0.27618025601381113;-0.11380745529516911;-0.6554157249426575;-0.21278200955125204;-0.10429321504800049;0.18617606796193265;-0.19985284229278727;0.06164646711218391;-0.18417529395717214;-0.13662542772117447;-0.36435200073709906;-0.37494663347772605;1.621931859072543;0.44454778973814824;0.702095424710099;-0.3049704546647405
A;-16.2;-0.27694511399402266;-0.11587601344707288;-0.6610319383942302;-0.2152088862196031;-0.10575121182969749;0.18562703176039808;-0.19830164050057103;0.06228968196054541;-0.1814888264492387;-0.13760739521089782;-0.36216947790877496;-0.3777156964478239;1.622692680250239;0.4381000374685273;0.703432941517729;-0.31426773615394943
A;-16.1;-0.2781396338985278;-0.11777477161176275;-0.6666268970285696;-0.2177293685402244;-0.10676111631597784;0.18525488157308212;-0.19744589409464103;0.06272282708202637;-0.17933123380003746;-0.1386478135900342;-0.3602232607089415;-0.38036035781382216;1.624600003844611;0.4334626953125378;0.7080861829841387;-0.3192747098720732
A;-16.0;-0.27981840841261985;-0.1193938047281371;-0.6720225082894817;-0.2202901609324579;-0.10713145655846423;0.1851424380648039;-0.1974449481613461;0.06290137082303926;-0.17779528345404216;-0.13975200678154653;-0.3585622790010925;-0.38284383677796097;1.6279810024360089;0.43116884701634106;0.7168975156739208;-0.31882816714821693
A;-15.9;-0.28192640603190355;-0.12075596698784352;-0.6772207941955894;-0.2228835422989066;-0.1069185508127739;0.18526716362036133;-0.19819234339050013;0.06284956056703939;-0.1768320396552543;-0.14091283278718247;-0.3571449728876024;-0.38516388909088906;1.6326232857874583;0.43095640692594683;0.7292804984906365;-0.3135774172377781
A;-15.8;-0.28440709597976443;-0.12192976843872749;-0.6822946635031366;-0.22552286699737767;-0.10625042461458589;0.18557023716542753;-0.19954943390995578;0.06259601695416905;-0.17636782717186072;-0.14212197096343582;-0.35592918020245734;-0.3873401631351716;1.6382146272809992;0.4323996118980511;0.7444007436359055;-0.3045265430550099
A;-15.7;-0.2871217776185544;-0.12294106768733126;-0.687232327363299;-0.22819080084586574;-0.10522048648231985;0.18602773603654166;-0.20127019834387266;0.062210767519187415;-0.176294665508701;-0.14336409929891536;-0.35480484076874097;-0.389346830478299;1.6443264992949072;0.43497435690410713;0.7610788018932952;-0.2929669794628431
A;-15.6;-0.2899137938237555;-0.12383357164783604;-0.6920445615463766;-0.23087524922856506;-0.10395630527601574;0.1866014254521935;-0.2030686146363862;0.06177441663073502;-0.17648342954663043;-0.14462204981109483;-0.3536474835114667;-0.3911622170826219;1.6504539692855058;0.43804246977216765;0.777929999408177;-0.28045160117165846
A;-15.5;-0.2928061936515469;-0.12464608943294664;-0.69677500265413;-0.2335867573633319;-0.10250844943731252;0.18725312538172378;-0.20496449389499133;0.06126842781280417;-0.17692966033263424;-0.14589548300114563;-0.3524839756248108;-0.3928163712606776;1.6565683937164977;0.44154135137590256;0.794890617469564;-0.2671172663024102
A;-15.4;-0.29583615944146047;-0.1253985628796146;-0.701443018893797;-0.23633017134268464;-0.10089343688547059;0.18795995493557305;-0.2070129414593463;0.06066587176652716;-0.1776472739010524;-0.14718531833463677;-0.35135353807306946;-0.3943333548685177;1.6627107233492913;0.4455178214202684;0.8120874854554385;-0.252851814423142
A;-15.3;-0.29901556760648607;-0.12616471893211578;-0.706140304312779;-0.23912841521904937;-0.09921887144506591;0.18865638666617546;-0.20919311248010403;0.05995592407570216;-0.1786070022725701;-0.14849025961498752;-0.3502739415845373;-0.3957587146315851;1.6687596386622623;0.44975481135935036;0.829205949866787;-0.23813778465215663
A;-15.2;-0.3023660212100161;-0.12701703880455018;-0.7109594191225863;-0.24200566213069052;-0.09758672701614746;0.18927726557071667;-0.21150302479565192;0.05912222322153404;-0.1797866649683666;-0.14980985210191422;-0.3492718415832232;-0.3971404818463733;1.6746264024913726;0.45407340166923715;0.846023089054114;-0.22336186979909733
A;-15.1;-0.3057359006527731;-0.12793812762438428;-0.7158262239986728;-0.2449271232712915;-0.09603105376343413;0.18983633180645532;-0.21369978976965437;0.058242153642506844;-0.1810875134880625;-0.15112669692700598;-0.3482289082856478;-0.39842386603798197;1.6799133392750667;0.4580595548976878;0.8614535753871193;-0.20959351680524918
A;-15.0;-0.30890897688889574;-0.12889539888826285;-0.7206292357360242;-0.24784222026261915;-0.09458761059503695;0.19036247132217765;-0.21543840066000947;0.05742851927153758;-0.18237378018335448;-0.15241753162720517;-0.34697214957941624;-0.3995261309221465;1.6840748898677198;0.46114624612564636;0.8739957216056116;-0.19830032219205318
A;-14.9;-0.3117875959589087;-0.1298533819313068;-0.7252808101272965;-0.25071740534959464;-0.09324168894176399;0.19087956810048912;-0.21658751752601219;0.05672661012471969;-0.18359283609360322;-0.15367005988761884;-0.3454310819877249;-0.40040101486847113;1.6869182481483938;0.46316714682175375;0.8831286718431821;-0.18994265313665082
A;-14.8;-0.31425865117976315;-0.13076629808036788;-0.7296761877130384;-0.2535134682137228;-0.09196916722408766;0.191420700113194;-0.21699616346792155;0.05619038659238629;-0.18468602841334558;-0.15487042229622672;-0.3435226837603085;-0.4009920333302579;1.6882288440048283;0.4639445258287753;0.8882712763010971;-0.1850198120798625
A;-14.7;-0.3161620938294769;-0.13165004476390063;-0.7337802289306268;-0.25620289891916226;-0.09085436454655937;0.1919750208679445;-0.21638462182679113;0.05590189102259391;-0.18553439262541094;-0.1560024960401063;-0.3411199127475073;-0.40126282322636775;1.687536991524576;0.46291862636685766;0.888109790695033;-0.18492966739266503
A;-14.6;-0.31738422691241386;-0.13253722564528037;-0.7375902074837457;-0.25877025133019593;-0.08998771484243973;0.19251569132132484;-0.21454507784871285;0.055916828859725154;-0.18604365574455972;-0.15705517042469808;-0.33813495121457615;-0.4012018797320398;1.6844824660413575;0.4596228890504639;0.8816261625751949;-0.1908150859121891
A;-14.5;-0.31771487005328236;-0.13342854813589167;-0.74104539893988;-0.26117866270817114;-0.08945203127054313;0.19304824305862534;-0.21111942133653255;0.056347837558165415;-0.18606551860788478;-0.15800661807628824;-0.3343995620166529;-0.40074805668512603;1.6784765169116884;0.4533926074808905;0.8671909873068451;-0.20435473692758332
A;-14.4;-0.316964667988227;-0.13432933799354974;-0.7440938698647788;-0.2633944004003075;-0.08932761539748046;0.19357375186641912;-0.20578368920688966;0.05729528607044476;-0.18546469360971685;-0.1588378004401072;-0.32976279132072905;-0.399850992862425;1.6689899751856965;0.44361470874923237;0.8433259702112963;-0.22709191089506842
A;-14.3;-0.31521927642039316;-0.1352389958671516;-0.7467360805409768;-0.2654221365587661;-0.08957752915851191;0.1940771072750067;-0.19871580396754912;0.058699870370822804;-0.18430047154769014;-0.15955572331907097;-0.3243115739627931;-0.39854679474986043;1.6563360800069917;0.4306119556379726;0.8108855010044707;-0.25820372304167094
A;-14.2;-0.3126260879405809;-0.13614513447013987;-0.7489761184869339;-0.2672747642416402;-0.09012461230851043;0.19454871874194257;-0.1902137028037017;0.06046831529491925;-0.1826791617278456;-0.16017220638764273;-0.31818774317766607;-0.3968846060143343;1.6410331219804455;0.41495830210974516;0.7713073217412214;-0.2962444162538773
A;-14.1;-0.30935510898424035;-0.13706828190762899;-0.7508486658416569;-0.2689678358371834;-0.09092436242054092;0.19495345067890613;-0.18058955265422355;0.06249045193546987;-0.18071268284990527;-0.16070612196542244;-0.3115466974529497;-0.3949456646759024;1.6236258001208244;0.397169872762821;0.7260199692509186;-0.33988428357935696
A;-14.0;-0.30561593873519577;-0.13802917925128444;-0.7523980459168147;-0.2705231046398726;-0.09191697410683952;0.1952531271211786;-0.17022720046061796;0.06463337530638436;-0.1785404398075654;-0.16118019868103017;-0.304577949943037;-0.39282420338729485;1.6047797065300617;0.3778942275569097;0.6767864445434357;-0.38745841932615654
A;-13.9;-0.30144200782455854;-0.13900246787344805;-0.7536026431686116;-0.27194039250253255;-0.09305477340349766;0.19546172000944484;-0.15922520623158581;0.0668765184327269;-0.17619116149796277;-0.1615934756693207;-0.29732748390781527;-0.3905246069162889;1.5846817963068345;0.3573790053725512;0.624156709982203;-0.4383686686841939
A;-13.8;-0.2968308714524266;-0.13996389382169028;-0.7544346268949012;-0.2732138371421575;-0.09430506417878481;0.1955974040349413;-0.1476141185674283;0.0692212435707773;-0.173668130991687;-0.16194227443527787;-0.28980946376208117;-0.3880419434068625;1.5634092715271892;0.3357455078453535;0.568362964051202;-0.4923408977696795
A;-13.7;-0.2918696943773975;-0.1408826297080772;-0.75488104434472;-0.27435288354318743;-0.09559279061802606;0.19567120022086826;-0.13559740136041504;0.0716154645089333;-0.1710394252592229;-0.16222964965450926;-0.2821173057054025;-0.38539127060680145;1.54132397973477;0.3134464406729838;0.5104674393728281;-0.5482478424864947
A;-13.6;-0.2866352169849211;-0.14172570439644616;-0.7549272098770814;-0.2753659951255685;-0.09684429748486156;0.19569858843243537;-0.12335939295447612;0.07401498629854797;-0.16836602410692247;-0.16245752248812506;-0.27433546994272695;-0.3825835657507992;1.518756704959129;0.2909067749370142;0.45144741399055643;-0.6050386779078014
A;-13.5;-0.28126249276976356;-0.14252822466011317;-0.754612085931285;-0.2762604301556042;-0.09804407217358868;0.19564489818374886;-0.11112862929885575;0.07633214524048038;-0.16573165131429146;-0.16264643210396335;-0.26658282697138347;-0.3797055452396345;1.4961333371551717;0.26845543815478035;0.3923139503709523;-0.6618581901591618
A;-13.4;-0.2759294071798042;-0.14334652324859487;-0.7539963127566738;-0.27704781806737433;-0.09918578180507209;0.19545403437575626;-0.09919592370744851;0.07844953916597164;-0.1632446737428337;-0.16282455269158413;-0.25901054179495553;-0.3768723629388806;1.473987976817555;0.24647788192212428;0.33432399312306593;-0.7176787922565309
A;-13.3;-0.27069661529408595;-0.14420638475063718;-0.7531055073892485;-0.27772736678800314;-0.10027222421371684;0.19511271794357832;-0.08765410542592805;0.08033079074157223;-0.16093705206834397;-0.16300399962967127;-0.2516744413384291;-0.37414333618552487;1.4525172957432542;0.22508660087729648;0.2778670014025497;-0.7722255936071702
A;-13.2;-0.26562780865458446;-0.14514060046209476;-0.7519716173026785;-0.2782981105041422;-0.10131340542867795;0.19460398292654046;-0.07659339795845638;0.0819377790596898;-0.15884088842708088;-0.16319877144354233;-0.24463061138604147;-0.3715847262643144;1.4319166875068587;0.2043716535158162;0.22330164191393642;-0.8252767476156491
A;-13.1;-0.2609008897953604;-0.14618056699003557;-0.7506430037398379;-0.278780066624563;-0.10227612477825243;0.19387927243960235;-0.06633573430919254;0.08315334097900573;-0.15707133657776762;-0.16343072051526253;-0.2380362464458896;-0.3692815035142396;1.412755829958079;0.18483514667048606;0.1721210270919613;-0.8754882447134804
A;-13.0;-0.2566673041848402;-0.14734189966001665;-0.749156253752588;-0.27919360697526496;-0.10311981526754277;0.19290274865972457;-0.057169191532453645;0.08387901030605827;-0.15572843335329;-0.16371564499259117;-0.23202943125939468;-0.3672955198753034;1.3955390229976237;0.1669593483990197;0.12570301959048535;-0.9215749698528564
A;-12.9;-0.2531399340581624;-0.14867378536617437;-0.7475792337402254;-0.27956047821292174;-0.10381784662308613;0.19161545249001088;-0.0494562289905251;0.08397710313033357;-0.15494765190231785;-0.16408367173558425;-0.22679034639273654;-0.36573946478280694;1.380916199184675;0.1512744773822221;0.08567532025313795;-0.9621150678730741
A;-12.8;-0.25051461012452414;-0.15021977655821672;-0.7459756696802122;-0.27990328301302636;-0.1043451300738929;0.1899612479186059;-0.043535219917338774;0.08332053345241786;-0.15485360243905255;-0.16456148989985042;-0.22248579475274166;-0.364712350658156;1.3694898482589641;0.13828037842668328;0.05357455558193536;-0.9957570311555637
A;-12.7;-0.24871152644170724;-0.15195184615626012;-0.7443294699562832;-0.28021705431941424;-0.10469961304210518;0.18798375309414483;-0.03928106653690161;0.08197307186312375;-0.1553895886192711;-0.16513651988410505;-0.21906071392238124;-0.36418170910742087;1.3610623308388758;0.1278409502567217;0.028902214473639276;-1.0229082464120394
A;-12.6;-0.24758095299943506;-0.15382876370939336;-0.7426091279867588;-0.28048770979978155;-0.10488981263969732;0.18575553702019354;-0.03643770756334286;0.08004991854573307;-0.15645162731097173;-0.1657887605025019;-0.2164000591985682;-0.36408986308364244;1.3552193149566651;0.11962388981390149;0.010552000644256765;-1.0445251181828743
A;-12.5;-0.2469741083775574;-0.1557985481436006;-0.7407770527344466;-0.28071383324764376;-0.10491901699348949;0.1833262031495586;-0.034791292440565835;0.0776538351365077;-0.15794001490498122;-0.16649048429960978;-0.2143970780887301;-0.364345288320882;1.3515815010031327;0.11338567581997294;-0.002288291525075259;-1.0612477442156347
A;-12.4;-0.24670368571821832;-0.1577989913323803;-0.7387852551507246;-0.2808906384643004;-0.10479369102753022;0.18075952621189595;-0.034062735631283814;0.07491465269090436;-0.15972959692654598;-0.16720835756486485;-0.21291355228316178;-0.36483725601793093;1.349655408938089;0.10879367554441499;-0.010717172809159514;-1.073961444115219
A;-12.3;-0.2467267971888205;-0.15982472899219413;-0.7366448008315274;-0.2810123055028262;-0.10452163920587498;0.17809854734815866;-0.03414636232308077;0.07188118095876739;-0.16178491795508165;-0.16794293835898344;-0.21191063887839645;-0.36557115620781766;1.349304498039917;0.1056903933908444;-0.015245256385412631;-1.0831459715594187
A;-12.2;-0.24703608404439237;-0.16188142272565198;-0.7343799679133944;-0.2810788067774883;-0.10411153811433493;0.17536843875113695;-0.03499602380075012;0.0685762905770051;-0.16409394206307049;-0.1686998987329531;-0.21137638449580165;-0.36656539951705036;1.350491431206656;0.1039911825824249;-0.016119018629558113;-1.0890578509283655
A;-12.1;-0.2475318410739451;-0.16394919178489964;-0.7319855806173194;-0.28107527602784366;-0.10357365464565138;0.17264126793031753;-0.03640257494953264;0.06509217847415183;-0.1665823332213261;-0.16947239788183;-0.21122536484633847;-0.3678062050294728;1.3529036106660923;0.10339975063344253;-0.014326115417664376;-1.0925902864046027
A;-12.0;-0.24812390288880248;-0.1660125679168356;-0.7294620436675086;-0.2809881115700499;-0.10292015373741448;0.16998546619571409;-0.03816758904174883;0.061515220239304114;-0.16918184305526207;-0.17025593691985508;-0.2113773483011645;-0.36928494625907526;1.3562491055456958;0.10362566448889687;-0.010817804278296705;-1.0946133146524781
A;-11.9;-0.24870354985606813;-0.16803361079297474;-0.7267927055877319;-0.2808338572433895;-0.10216537340339293;0.16740534769603999;-0.040160407150395094;0.05790979632344406;-0.1718200785582802;-0.17102507147198676;-0.21175394202865072;-0.3708996756518146;1.3602579739684098;0.10451488855153501;-0.005987292630534213;-1.0954013616744058
A;-11.8;-0.24913157657025842;-0.1699587514913068;-0.7239454252356898;-0.2806336057849732;-0.10132184643411613;0.1648997396026557;-0.04223059395149159;0.05435226810012472;-0.17440633833673402;-0.17174357567507093;-0.2122593086808977;-0.3725115298632824;1.364595002553604;0.10591158241769749;-0.00023619940523822436;-1.0951911978435023
A;-11.7;-0.2493713853031405;-0.17177589072678945;-0.7209343307943943;-0.2804108187599228;-0.10040694727073252;0.16244978301861046;-0.044345258269851195;0.05086127638158855;-0.17691553171110197;-0.17240113695361625;-0.2128633578798762;-0.3740585758963655;1.3691761750234877;0.10776200407140646;0.00642307030017264;-1.0939635653067805
A;-11.6;-0.24938739686853406;-0.17347231590725087;-0.7177736540025057;-0.28019293328130157;-0.09943963058640914;0.16002705823184993;-0.046482144782357016;0.047450726319094416;-0.17932412115859364;-0.1729858348295661;-0.21353715468428036;-0.37546888913339926;1.3739232739389804;0.11002671944512654;0.014049114827467513;-1.0916282751818471
A;-11.5;-0.24902623603845253;-0.17499221362976414;-0.7144245672792575;-0.2799812422197876;-0.09842221426982878;0.15767714065657534;-0.04842792906143756;0.044225067131730356;-0.1815268815361799;-0.17346472179482397;-0.2141700667982449;-0.3766387752915943;1.3784228039019295;0.11247431001854968;0.021851088072353697;-1.0887772163961076
A;-11.4;-0.24815341560900794;-0.1762882986093679;-0.7108564483108006;-0.2797704731017321;-0.09735410195350314;0.15545875620282956;-0.0499741932960992;0.041285457912597634;-0.18342889452807043;-0.17381219283018856;-0.21466160720033178;-0.37749533918990874;1.3822937701873093;0.11487073492976307;0.028990037910985755;-1.0860690456562203
A;-11.3;-0.24658895534405634;-0.17729694239392924;-0.7070222108885789;-0.2795705682184;-0.09624665868236093;0.1533972048766019;-0.05088959114445274;0.03874162223457067;-0.18491019941830267;-0.17398654917586232;-0.21488063511210487;-0.37789056865164516;1.3850525919635759;0.11695414262968429;0.03466621185667318;-1.0840809611811508
A;-11.2;-0.24416772631270334;-0.1779582416688381;-0.7028776875889857;-0.2793876283099088;-0.09510604798107636;0.1515245640823406;-0.05095653976352926;0.03669820896683973;-0.18585943966313323;-0.1739497130769294;-0.21470662443430766;-0.37769461309289176;1.3862474162190122;0.11848546948672345;0.038107980988040246;-1.083368692523961
A;-11.1;-0.2409705393360797;-0.178307947725016;-0.6984870117342901;-0.279231644047675;-0.09394447634877157;0.14983886149211445;-0.05023880082241505;0.03512420130022931;-0.18632282387265864;-0.17372603445146506;-0.21417869967389147;-0.37696765476620153;1.3860409357148988;0.11948248091663327;0.03947543997859615;-1.0838679256623571
A;-11.0;-0.23714244088268632;-0.17841005782006736;-0.6939461478079556;-0.27912044696649385;-0.09278462786087038;0.1483102918420247;-0.048881397358547685;0.03394587702856011;-0.1863896471353046;-0.1733552846181321;-0.21337462518638595;-0.3758018657184157;1.3847527972404752;0.12002105833472054;0.03923062847989911;-1.085306158303152
A;-10.9;-0.23282319534713203;-0.17831161194389367;-0.6893262625108942;-0.2790444555842875;-0.09161040535494891;0.14697507195260462;-0.04700348338175081;0.03311561158586818;-0.1861393188513194;-0.1728758525996552;-0.21238016001272308;-0.37433956548000813;1.3826813258222552;0.12023052687476454;0.03764504703267413;-1.087524616104056
A;-10.8;-0.22818692977398225;-0.17807301276744347;-0.6847131750887954;-0.2789941759419232;-0.0904064838631169;0.14586493339647166;-0.04476264482985892;0.032566878307983105;-0.1856730818406227;-0.17233480643952515;-0.21130294297168772;-0.3727502085178851;1.3802085817301437;0.12027424035489132;0.03511330463083162;-1.090284129627693
A;-10.7;-0.2232847264445077;-0.17773029402538487;-0.6801673590235948;-0.27899777165352013;-0.08921222229403458;0.14492386872412766;-0.04220746055020397;0.032262766979412216;-0.18502392918171484;-0.17174667117119613;-0.21015065878041672;-0.3710167916411182;1.3773949338576843;0.12009845135013686;0.03182177847470058;-1.0934913621624078
A;-10.6;-0.21813611890805795;-0.17730519034488346;-0.6757301650229799;-0.27908017233306026;-0.08806144386940495;0.14410278132825205;-0.03935280898851923;0.032183813700741304;-0.1842044380219363;-0.17111671659487104;-0.2089116347198341;-0.3690978018006439;1.3742146004092781;0.11963081542646048;0.027845313656995607;-1.0971115340202457
A;-10.5;-0.2128443113732379;-0.17685733603494747;-0.6714915623776898;-0.2792764153220446;-0.08700502672637045;0.14332597624214882;-0.036307367462981466;0.032260267502362217;-0.18328141618566374;-0.17047327596428374;-0.2076242739177694;-0.36701059350222986;1.3708668663681767;0.11884833065193945;0.023582053843764328;-1.1009279570522317
A;-10.4;-0.20750387429754813;-0.17644397231944708;-0.6675366170249326;-0.279622335184035;-0.08609534235244576;0.14251269281231416;-0.03317283425593809;0.03242432586243282;-0.18231684758275968;-0.1698418297946649;-0.20632015854765196;-0.36475921943912604;1.3675221877825372;0.11771835520592155;0.019414410990763464;-1.1047285477228188
A;-10.3;-0.20221868248429153;-0.17608230163428207;-0.6638886980389307;-0.2800852436219001;-0.0852790807006234;0.14174199622923966;-0.030030950711672777;0.03265762638457592;-0.18136315880718534;-0.16924593147029476;-0.20507231332858922;-0.3624822494456741;1.364363429763766;0.11642185382652004;0.015454130128708776;-1.1083870598434657
A;-10.2;-0.19711814529074712;-0.17578697312736669;-0.660566639317576;-0.2806138213975409;-0.08447509781165374;0.14113860706572456;-0.026980106345318444;0.03294507099425137;-0.18048377201340315;-0.16871535564765994;-0.2039806694487405;-0.3603816617259832;1.3616469823805089;0.11521518388549845;0.011802544962976391;-1.1117734826371608
A;-10.1;-0.19224005087273532;-0.17555641465205696;-0.6575645064342988;-0.2811807842417391;-0.08364011571953567;0.14075985658864187;-0.02403741213449523;0.033292024500493955;-0.17969275019433084;-0.16825524763203958;-0.20306857066317674;-0.3585126257018365;1.359358778475574;0.11419521878367034;0.008389449114486247;-1.1148683975901932
A;-10.0;-0.18762040511347156;-0.17538302355367108;-0.6548658322274887;-0.28175062329922174;-0.08271837592916542;0.14067944077616534;-0.021216753469282423;0.033709577438570504;-0.1790012224836488;-0.1678690388896058;-0.2023623686755449;-0.35694167833649293;1.357476655075378;0.11348406596636851;0.00511508251356485;-1.1176551839203004
A;-9.9;-0.18340490451260116;-0.1753076776020137;-0.652532109594536;-0.28230430787962923;-0.08168217585952231;0.14095256802795042;-0.018640334420562787;0.034151909403914216;-0.1784876129661308;-0.16759455948092183;-0.20195676348019131;-0.3558437500579994;1.3563335782354464;0.11323775263971747;0.002234280706476355;-1.1199856092607448
A;-9.8;-0.1797231751769912;-0.17537733013443102;-0.6506347769594143;-0.2828401467646051;-0.0805323840321841;0.14159343353288678;-0.016418687336675453;0.03456726189710713;-0.17822416711194933;-0.1674669640874531;-0.2019259110568843;-0.3553485094000466;1.356223824500507;0.1135359541103127;1.0899626789573347e-05;-1.1217370843224197
A;-9.7;-0.17674320989585457;-0.1756239752345552;-0.6492143514253961;-0.28331502079374715;-0.0792028057059504;0.14270234866304898;-0.014699502464096903;0.034911244099792516;-0.17829795997960307;-0.167525028050735;-0.2023930561513021;-0.3556856585534951;1.3575280489692227;0.11465016199153322;-0.0012609483672108013;-1.1226724932003531
A;-9.6;-0.17462000916074505;-0.1760805010562425;-0.6483151692789244;-0.28369423771689384;-0.07764219958628127;0.14436203575946172;-0.01361669380991587;0.035140206541985686;-0.17878893566066623;-0.16780534875087794;-0.2034683640770365;-0.3570641004113151;1.360603401302864;0.1168033043571679;-0.0013144082563663062;-1.1225988276619399
A;-9.5;-0.17328647439381317;-0.17674566088348787;-0.6479303136139896;-0.2840043300388322;-0.07589829375565182;0.14648944932667307;-0.01309957004705764;0.035261190527413167;-0.1796589715601371;-0.16828799187624854;-0.20507262992294906;-0.3593345790982727;1.3651502818798305;0.11980210092283539;-0.00033951557341627137;-1.121650020831126
A;-9.4;-0.17261665691973604;-0.17759996659542665;-0.6480194665200365;-0.2842753712460473;-0.07402382290005871;0.14897639676685115;-0.01302916566785628;0.035298477699405195;-0.18083654171035946;-0.1689340160170807;-0.20708359506543772;-0.3622633858714335;1.3706783890144454;0.1234015654510614;0.001362461861527109;-1.119987662640602
A;-9.3;-0.17249309308194505;-0.1786503911420274;-0.648604721774694;-0.2845742400786735;-0.0721365369510325;0.15166540117410632;-0.013275096711900747;0.03526226282092826;-0.18225636272054135;-0.16971809526961268;-0.20936803502557488;-0.36562003877501725;1.3768148852610054;0.12718387886938443;0.0034763312503827137;-1.1179671928127304
A;-9.2;-0.1727668095848678;-0.17989912654172446;-0.6497001413895944;-0.2849763456532246;-0.07036853066976301;0.1543746075636312;-0.013678770723003442;0.03516928055088564;-0.18383654782402825;-0.17060684242232282;-0.21176607701455663;-0.3691234845679139;1.3830963567229695;0.13067248170493295;0.0056266359876957495;-1.1159883194940141
A;-9.1;-0.17339541133419534;-0.18131927786523594;-0.6512397042233475;-0.2854631667417227;-0.06869296437764172;0.15708989596154765;-0.01421716827493924;0.035028248927143846;-0.18554462578245534;-0.17157225861938752;-0.21424289422864073;-0.3726958203566424;1.3892535305811764;0.13390672786165503;0.0077455247296907;-1.1139313847981196
A;-9.0;-0.17436558684617953;-0.18288678049673024;-0.6531637260138838;-0.28600810636331975;-0.06707104815880571;0.15982042106066796;-0.014893940684068185;0.034841278884949034;-0.1873614520989264;-0.17259328136230856;-0.21679042414466232;-0.3763158358557428;1.3951218126519631;0.13697872924998844;0.009826562904247105;-1.1116418836353787
A;-8.9;-0.17558408827320893;-0.18456489370667928;-0.6553829492601135;-0.28659881692895084;-0.06548613644645318;0.16252267558669065;-0.01564322321698186;0.03463024024125927;-0.1892304789344692;-0.17362840234543686;-0.21933250681419159;-0.3798185894043411;1.4002590414801244;0.13986604333922203;0.011703147909462253;-1.1090401005854034
A;-8.8;-0.1769655797108518;-0.1863136906722156;-0.6578015775978301;-0.28721625593520894;-0.06391077441937343;0.165165121608144;-0.016410244348987524;0.034415711245423974;-0.19109766123497707;-0.17463602876081463;-0.22180354375860323;-0.3830590890715668;1.4042491544960045;0.1425844163047092;0.013239381048613552;-1.1060060441645367
A;-8.7;-0.17842725976232554;-0.18814985914846982;-0.6604736802898961;-0.28793265539310564;-0.06247913292830898;0.16760308726016993;-0.01708614802245617;0.03419658674909409;-0.19290928025097465;-0.17560384962973563;-0.22410064187631118;-0.3859006595386454;1.4069414574774948;0.14469436259541713;0.01417207594010872;-1.1029790333488698
A;-8.6;-0.17986394362395774;-0.19010761928403141;-0.663496126883449;-0.2888550309445508;-0.06138620507077963;0.16963781514905873;-0.017522907034519974;0.03397041835073056;-0.1946034304077342;-0.17652478258072213;-0.22608694509215255;-0.38816076234001184;1.408184379313024;0.1455678776179128;0.01414242659896292;-1.1006132608022456
A;-8.5;-0.18125456927025407;-0.1921935074643759;-0.66689977502761;-0.2900191476796108;-0.06070507116791379;0.17119532046117714;-0.017686800786758827;0.0337237836187938;-0.19615188388911875;-0.1773919574023508;-0.22772792589934454;-0.3898264276317993;1.4080033409101649;0.14498995191046316;0.013085337077620274;-1.0991090725320527
A;-8.4;-0.18258039452464914;-0.19441874852001195;-0.6707292823868887;-0.2914683090694492;-0.060523068982555994;0.17219413235200065;-0.01754157849475313;0.033440809523626935;-0.197526633403049;-0.17820167657378994;-0.2289890274875812;-0.3908950566691556;1.4064689269444663;0.14270817691397042;0.010933383050827139;-1.0987181592749122
A;-8.3;-0.18370922511562693;-0.19679888854107563;-0.6750171305996808;-0.2932791414332385;-0.06098168581030716;0.17245836548707683;-0.01693643164447578;0.033133511247364966;-0.1986622297152678;-0.17893361726475598;-0.22972136080088723;-0.3911142079757355;1.4032197971969609;0.1382250427495184;0.007315664935001465;-1.0999191133848836
A;-8.2;-0.18451991892783326;-0.19933624960199214;-0.6797573380208499;-0.29550077812910924;-0.0621743104088317;0.17184915859876915;-0.015747885744568757;0.032815854442493686;-0.19950027688278116;-0.17956265079821643;-0.22979637877201542;-0.3902461897556555;1.3978606335710575;0.13118937652869445;0.0019313666093694337;-1.1030134569430379
A;-8.1;-0.18486219468435117;-0.20205580347761476;-0.6850183785731785;-0.298238296563448;-0.06429484682190623;0.17015423956315567;-0.013792671551572655;0.03250010097877243;-0.19996129583333389;-0.18007163926409175;-0.22904482074792432;-0.3880358427295203;1.3900984792068467;0.12094531705007272;-0.0056584086503015385;-1.1086821797877464
A;-8.0;-0.18459391168250594;-0.20497942223531318;-0.6908534674392977;-0.30158383676282075;-0.06751492771534418;0.16717893480597157;-0.01090267562116548;0.032198457131451086;-0.19997320844314537;-0.18044349308402552;-0.2273080213034735;-0.38423374041245606;1.3796306047284226;0.1069061018388151;-0.01585441239509855;-1.1175254701392197
A;-7.9;-0.18377903124772654;-0.20806412944403618;-0.6971572425375419;-0.3054591888587028;-0.07171144838245525;0.16302254272410988;-0.007191243525985325;0.03189313015075168;-0.19954943845026207;-0.18066151537233655;-0.22467301325707578;-0.37898416675205326;1.3665524110638474;0.08948956915075978;-0.028330056471192577;-1.1290089629086353
A;-7.8;-0.18253873467857584;-0.21124994267639519;-0.7037948023838805;-0.30974750898652204;-0.07669681319044441;0.15786124670460033;-0.0028443725494390337;0.031557015042675385;-0.19872061708504596;-0.18071054841509948;-0.22129727325220805;-0.3725692425608793;1.3511488927814614;0.06934644472500473;-0.042559327255138335;-1.142354983687074
A;-7.7;-0.18096665795184208;-0.2144859372299015;-0.7106016051571045;-0.31432031377014713;-0.08225956559576053;0.15185807392454143;0.0019689377464343627;0.031172869774689582;-0.1975335132124192;-0.18057505160228127;-0.21730159810014849;-0.36512769903012177;1.3334201050758132;0.047160736110828605;-0.058089153737721944;-1.156709740300471
A;-7.6;-0.17918512181530133;-0.21771163810010474;-0.7173895602016431;-0.319024470031823;-0.08814557353234154;0.14521861905243583;0.0070397111622861885;0.030719629678229055;-0.19604746278969287;-0.18023970314918047;-0.2128418405107162;-0.35685332181341134;1.313422678953419;0.02376182974561969;-0.07436255666458624;-1.1710563982696192
A;-7.5;-0.17723908843832614;-0.2208879976520457;-0.7241000457565017;-0.3238149659896754;-0.09429830550037321;0.13801622626920818;0.012292113947570626;0.03018236051688894;-0.19424747605557702;-0.17969109148525542;-0.2079965257343488;-0.34795563324795875;1.2914752172210804;-0.0006258073227201066;-0.09110651890410626;-1.1851530238818375
A;-7.4;-0.1751416375852095;-0.22398780340609914;-0.7306973466379167;-0.3286702512159545;-0.10070325519179502;0.13028367558180243;0.017692992852957223;0.02955220688813953;-0.19210851258527306;-0.17891771540907309;-0.2028071736823167;-0.33858208178430305;1.2678402449327182;-0.025924610816186355;-0.10815669638143799;-1.1989349487735002
A;-7.3;-0.17299245202987823;-0.2269538834850664;-0.7370920302513086;-0.3335097247389678;-0.10724017475054959;0.1221625621996183;0.023096127152053225;0.028804274400660912;-0.18963453409675868;-0.17790635575272518;-0.1974168936564793;-0.32905590050393707;1.2429718911772882;-0.05167845719537123;-0.12505840097815835;-1.211895150729008
A;-7.2;-0.17088222612056914;-0.22973187104426884;-0.7432039900812724;-0.33826044463179183;-0.11380380314221306;0.11378537753534523;0.028368372914608586;0.02791595338328756;-0.18682424673053077;-0.17664481567496138;-0.1919608781095099;-0.3196968092726906;1.2173425304009138;-0.07748075731596282;-0.1413845954532178;-1.2235979520830318
A;-7.1;-0.16884554276391217;-0.23229977035290528;-0.7488926638008913;-0.34282107390591054;-0.12023223181705411;0.10525553734815762;0.033411907416076914;0.02688617536498783;-0.18372706457808796;-0.17512720105989565;-0.18648883386712956;-0.31047837123360345;1.190755724492929;-0.10284746464888128;-0.15687780177274924;-1.233442961163897
A;-7.0;-0.16692735768800127;-0.23463623689161572;-0.7539814540307885;-0.3470638913586743;-0.12631209107260144;0.09669802243701131;0.038103639133107325;0.025714575207334445;-0.1804194037522775;-0.17334876678382027;-0.18105399922818144;-0.30131066321446265;1.1628412074076193;-0.1271483962415627;-0.17124705752260105;-1.2406235977188116
A;-6.9;-0.16510025874859569;-0.23673579635446895;-0.7583861964735323;-0.35093916828676797;-0.13197907266978248;0.08814512167847255;0.04243347752772525;0.024412930802751198;-0.1769129556402973;-0.17130531400130522;-0.1756460027916582;-0.2921198454838665;1.133447692036052;-0.15022608712822194;-0.1844305281503047;-1.244972832621305
A;-6.8;-0.16332718200600205;-0.23859886079947668;-0.7620211553839455;-0.3543974675010322;-0.13716889170784352;0.0796224664442966;0.046401172657343115;0.02299686858406691;-0.17322505356668572;-0.16899501977359543;-0.17024124339877011;-0.28278857414723557;1.1023543894131969;-0.17193535919816094;-0.19640120294950414;-1.2463385318556819
A;-6.7;-0.16171444645165423;-0.24017776119107204;-0.7647154628698356;-0.35730385672969067;-0.14164945386119454;0.07130184970114284;0.04982133327845506;0.021448093779022015;-0.16942928255165945;-0.16641004680488258;-0.164966540529353;-0.2734164616436523;1.0694891097711627;-0.1915195743567888;-0.2066972651800203;-1.243767149840341
A;-6.6;-0.16037240885577742;-0.241418442152332;-0.7663209607769064;-0.359538696469472;-0.14521661888627913;0.06335052807064967;0.05251330089617434;0.019745009897628618;-0.16558132786705215;-0.16354080742956478;-0.15996005731255902;-0.26417678800597133;1.034939337895671;-0.20828800393298152;-0.2148486549379598;-1.2364033775934562
A;-6.5;-0.1594011390477732;-0.2422867459211666;-0.7666500584558769;-0.3609521913159037;-0.1476112724095997;0.055948336951391564;0.05429299777701968;0.017877305755875206;-0.16178293304944535;-0.16038833914729445;-0.15533310673403;-0.25507609354461214;0.9984658928199499;-0.22142603208318912;-0.2204287506799183;-1.2232331670665646
A;-6.4;-0.15890310157114218;-0.2427453042016161;-0.7655276141208454;-0.36140412312111714;-0.1485890585475187;0.04926911377817422;0.05497918137165886;0.01583250258383484;-0.15812904370231617;-0.15695293974833113;-0.15120065288159257;-0.24614719167058174;0.9598865318024377;-0.23015265223311188;-0.22301656350166965;-1.2032827693152317
A;-6.3;-0.1588080792601021;-0.24278683202030482;-0.7629904456405932;-0.360936644593016;-0.14825560715971342;0.04327061773047136;0.054655898370003564;0.013625970245855656;-0.15454944158289763;-0.1532298344224241;-0.1475317192682235;-0.23748603277078595;0.9195611532327943;-0.23479795415772697;-0.22271340246780547;-1.1770757906250955
A;-6.2;-0.15898081691996335;-0.2424255694324522;-0.7591380478100369;-0.3596446593042675;-0.14681988554477643;0.037841092250592734;0.053501576139136586;0.011288924958271052;-0.15093735322481816;-0.14921964625981943;-0.1442324277457725;-0.22914217835707107;0.8779196983530859;-0.23604094625557082;-0.21983019637551848;-1.1456221193892029
A;-6.1;-0.1593746148940811;-0.24163285943799107;-0.7540482878959853;-0.3576034894350846;-0.14443451810611707;0.03292060808381336;0.05159287027794546;0.008821406349497352;-0.14719404561529092;-0.14490956504606478;-0.14130040952110257;-0.2213431443114633;0.8355584804313922;-0.2342955836714964;-0.21444321775458342;-1.1095153253761705
A;-6.0;-0.15991942841164608;-0.2403845895802741;-0.7478306880688086;-0.3549147896976308;-0.14130176778591963;0.028419511898827743;0.049043601600012365;0.006227442206395262;-0.1431981914479632;-0.14028667137394946;-0.13871359319298593;-0.2143270316631427;0.7931547647802075;-0.23013296553355778;-0.2067035942569504;-1.069562984046014
A;-5.9;-0.16051029719035714;-0.23871537070605964;-0.7405311731374491;-0.35161945917707094;-0.13752794979194416;0.024282173541231078;0.04598375644809605;0.003545893889321805;-0.13892747692787033;-0.13537312939244472;-0.13638467231352647;-0.2079905919292926;0.7508052094327873;-0.2239412519399151;-0.19689190317965455;-1.0264297117070846
A;-5.8;-0.16107449239662142;-0.23665627547946144;-0.7321711221316809;-0.34773525599612576;-0.1331695654234344;0.0204828588803303;0.04250139103320938;0.0008101053193729779;-0.13439168759836573;-0.13019488534174872;-0.13424964334398481;-0.20221444655307197;0.7085149099637382;-0.2159413281100493;-0.18522401913710418;-0.9805490821916161
A;-5.7;-0.16144773652883782;-0.2342552513802234;-0.7228455362036694;-0.34334583284688325;-0.12842022881154458;0.016911128827768795;0.038806213851239335;-0.0019283210011327157;-0.1295209053603701;-0.12477216528088686;-0.13217275884864543;-0.19689188363211074;0.6664944655446314;-0.20682436129095239;-0.17212756614946656;-0.9330104289183518
A;-5.6;-0.16146937924218197;-0.23156544786589883;-0.7126488215207987;-0.33853182019872374;-0.12346571362899583;0.013459755917564209;0.03510550472435697;-0.004616198208330813;-0.124259375162592;-0.11913037089007217;-0.1300160119814009;-0.19188711710996031;0.6249044337911105;-0.1972589232071078;-0.15804453784259032;-0.884878917235171
A;-5.5;-0.16119325899485482;-0.22853667410654666;-0.7016298746855494;-0.3333358940716149;-0.11836515136726655;0.010128597584396992;0.03136453924364124;-0.007278673621959886;-0.1185755270976303;-0.1132624564237017;-0.1278536922546114;-0.18746157748600534;0.5842394561632158;-0.1872936289845346;-0.14288656120118937;-0.8362024249413089
A;-5.4;-0.1607130458374444;-0.22508741884343664;-0.6898399755986206;-0.3278054990870274;-0.11317481317871048;0.00692976826570435;0.027505249882384175;-0.009961230939843357;-0.1124135073907544;-0.10714522498407808;-0.12580988081388544;-0.18402510905917713;0.545183172627091;-0.1769132727761753;-0.1264370919093878;-0.7868900001898718
A;-5.3;-0.16011137339974457;-0.2211883259796048;-0.6773002974936535;-0.3219493729516296;-0.10788452080445454;0.00389923519590063;0.02345870403680711;-0.012683258929169439;-0.10581949229355292;-0.10079492846222315;-0.12396055872725764;-0.18170148324802549;0.5079570452293725;-0.16595939288542283;-0.10861769563352386;-0.7367449207415708
A;-5.2;-0.15949830585514313;-0.2168006453506477;-0.664028212449705;-0.31577157905769937;-0.10246641220641184;0.001085727710972595;0.019126519123134622;-0.015473083853062342;-0.0988489464262452;-0.09422637648913978;-0.12240532447057006;-0.1806468051125525;0.47279500588047174;-0.15419373078256626;-0.08929788572382336;-0.6854415203678155
A;-5.1;-0.15884220013412165;-0.2118836911679276;-0.6501084835445141;-0.30935158669956575;-0.09706847413776876;-0.0015630675419031625;0.014568300972756798;-0.018339117080208966;-0.0913836298905899;-0.0874163985217038;-0.12116430609925333;-0.181162025029721;0.4403759774283458;-0.14201194899618486;-0.06849584680632681;-0.633524320192473
A;-5.0;-0.15806387416959922;-0.2064240759427145;-0.6356311707926583;-0.30277130925182494;-0.09185664447370945;-0.004116881725772625;0.00989563298894458;-0.021270041113221616;-0.0833078424793392;-0.0803517159550391;-0.12020881166658737;-0.18344102095866988;0.4112705558612282;-0.12992407524749705;-0.046347377252954125;-0.5817438860816591
A;-4.9;-0.15719602709294023;-0.20035550323943152;-0.6206894340838041;-0.29611465522721314;-0.08696053132709025;-0.006614202226232546;0.005106211310243358;-0.024299096648959573;-0.0745142732423636;-0.07300346571661498;-0.11961347567346281;-0.18788205097956845;0.3862317163443967;-0.11819875104366684;-0.022771802699125487;-0.530401127565054
A;-4.8;-0.15624891558247178;-0.193621919763574;-0.605373156215979;-0.28946268072612824;-0.08251213479484676;-0.009096966573302723;0.00021819663040467674;-0.027451132869027672;-0.06489043471979894;-0.06534383412889211;-0.1194338157766397;-0.1948479366422622;0.3659743019100663;-0.10714578281725862;0.002278907272791564;-0.47987623298587145
A;-4.7;-0.15519480892128623;-0.18629469838424217;-0.5897005466175127;-0.2828042294272022;-0.07849370772490749;-0.011551079134219489;-0.004716050852154041;-0.030683849928078155;-0.054562097650623365;-0.057440097290199166;-0.1196036620010712;-0.2040198487702165;0.3501437131138623;-0.09676361275772205;0.028517356369545332;-0.43036026651573955
A;-4.6;-0.15404082020481624;-0.17847119959193236;-0.5736715311668954;-0.276099940218578;-0.0748222588149785;-0.013934489177408693;-0.009677926707398643;-0.03395012331452141;-0.0437486484257299;-0.04938936421265794;-0.12005348542026195;-0.21490640250692672;0.33805521421763896;-0.08684895603985465;0.05560477725214863;-0.381796467592034
A;-4.5;-0.15264522673787262;-0.17026102415268074;-0.557282848255741;-0.269325921008682;-0.0715002867326553;-0.016250391855110458;-0.01451530892004943;-0.03716932503874881;-0.03252769152109458;-0.041254780845922046;-0.1206315156209794;-0.22707168624749796;0.32926346072165114;-0.07761846118665616;0.08313571566004985;-0.3347794148413037
A;-4.4;-0.15085992219622035;-0.16179296083276995;-0.5405231789631983;-0.2624464624205123;-0.06851072749591136;-0.01849557821712322;-0.019069318801858415;-0.040251033046813545;-0.021010062242629246;-0.03311301989931614;-0.12116718393231429;-0.2399807141141772;0.3231684946025055;-0.06925133158405439;0.1106529820104667;-0.28988497414303716
A;-4.3;-0.1487943484225953;-0.1531056675024871;-0.5234266502361145;-0.25545266011535883;-0.0657768156452323;-0.02062934851962428;-0.023416226085771374;-0.04319974955651529;-0.009387482815592207;-0.025035260027983064;-0.12168809771422895;-0.2533943986384801;0.3193494031141224;-0.061440792325688776;0.13799275027378943;-0.24674572420010854
A;-4.2;-0.1465583408724589;-0.1442174974460384;-0.5060339296627765;-0.24834720540750066;-0.06324076098413478;-0.022619120523606373;-0.027636670763512394;-0.046030816333206825;0.002196442419211131;-0.017072847696968374;-0.1222393875786909;-0.2671874125549001;0.31754793941213677;-0.05393453541551896;0.1650540129808613;-0.205027163181156
A;-4.1;-0.14428051021798982;-0.13519836289281795;-0.48837209354226285;-0.24110208759188545;-0.060784337446571524;-0.02440650980436221;-0.03181738832412773;-0.048736932257126275;0.013460389243622473;-0.009329919387622176;-0.122831896973977;-0.2809389916424714;0.3170532152089347;-0.04628755877924107;0.19159280386195743;-0.16421925972396956
A;-4.0;-0.14210486900472574;-0.1261103360662128;-0.4704706223499491;-0.23369147024677872;-0.05828496540108041;-0.025932114990868893;-0.03606130982994937;-0.051318863072838505;0.024126812249241958;-0.0019060453955428436;-0.12349045833832051;-0.29426018547239674;0.3171724372784954;-0.03803096660108807;0.21739244005866976;-0.1237513440818363
A;-3.9;-0.13981542412021142;-0.11703376167910662;-0.45232365759974247;-0.22610924843148705;-0.05580072545860171;-0.02722794191985045;-0.0401657647611558;-0.05370004498765546;0.03428202378741485;0.005194553385854839;-0.12405514641601734;-0.30694495334543914;0.31782373548745735;-0.029652451394103885;0.24215882600714878;-0.08454358160408049
A;-3.8;-0.1370817598306937;-0.10807320486997707;-0.43391345923433544;-0.21834874644496516;-0.05343684569600793;-0.02834976947257495;-0.043823972391732524;-0.05576897303640038;0.044084656271856204;0.011979489419705391;-0.12429155946760817;-0.3187478714586893;0.3189940537453637;-0.021903754012769117;0.2655188209245525;-0.04797331043173436
A;-3.7;-0.13376583340426684;-0.09926101671058696;-0.41525256274205535;-0.21042298099268297;-0.051245891444865244;-0.029330201017198743;-0.04691296778260762;-0.05749253359279516;0.05365220156761463;0.01847063140081584;-0.12411625794198144;-0.3296640810489251;0.3207768914513025;-0.015185398465544786;0.287321724756592;-0.014694563046810494
A;-3.6;-0.12969381345838382;-0.09062795471708363;-0.3963494146137929;-0.20234767027565326;-0.04929887067638772;-0.030211869593380847;-0.04928117671762677;-0.05883220527101751;0.06314820735865112;0.024704195028588227;-0.12343037116288391;-0.33972605596378447;0.3233458267887439;-0.009997322645584283;0.3074264764021031;0.01449596991326807
A;-3.5;-0.12467863376703914;-0.08229909037900729;-0.3772098630807692;-0.19410591459337212;-0.04762835469327609;-0.031012386036183504;-0.050726329153402305;-0.059690855709418233;0.07252147567245526;0.030620893918988923;-0.12204821668807764;-0.3484757500202498;0.3262916389476995;-0.006672975952604965;0.3254069765536869;0.03881065150509411
A;-3.4;-0.11863016181850927;-0.07438991888051483;-0.3578554314486926;-0.18568190595653356;-0.04622822660289616;-0.0317306694252002;-0.05112734145956738;-0.05999523107856386;0.08163521798896411;0.03614047865859238;-0.11983696640958108;-0.3554336633219948;0.32908330928724183;-0.005313924815206317;0.34086609474920593;0.05784305270757173
A;-3.3;-0.11125158273360825;-0.0670308285212533;-0.3382672934183555;-0.17705434205250903;-0.04516690053290384;-0.032404773837219736;-0.05019627685238748;-0.059625843011185786;0.09055497862814121;0.04123918443750707;-0.116556023216416;-0.3601958302994699;0.33145738028732197;-0.0065052094153630335;0.3533934868899742;0.07041795597163514
A;-3.2;-0.1022887612782819;-0.060349477267219065;-0.3184386200282736;-0.16820587393611142;-0.04450301230883502;-0.033067087378913396;-0.04767650000546375;-0.0584720700607122;0.09930405289209254;0.045881318924821723;-0.1119860430212265;-0.3623433798874671;0.33310712859306424;-0.010737453470894831;0.3625857307951774;0.0755136818729234
A;-3.1;-0.09195658959160369;-0.05430603198369788;-0.29844165855561844;-0.15916869702197634;-0.04416866951692544;-0.03369650780311151;-0.043754984715199174;-0.056610637366184546;0.10778283545833744;0.05005451384628623;-0.10626702243379893;-0.3619940813310598;0.33392351410843446;-0.017649317018338717;0.3685226033929796;0.07384807712798835
A;-3.0;-0.08055365288906557;-0.04880435838795094;-0.2783547769451271;-0.14998703237967081;-0.044074632620056065;-0.03426617001397814;-0.03871321258855087;-0.05416808015252372;0.1159374386429688;0.05378243555251361;-0.09962616862029683;-0.35949964093432474;0.33397771798107634;-0.026759565244091288;0.3714745153213457;0.06647349956449577
A;-2.9;-0.06847363112868354;-0.04380458969145362;-0.25830625535333507;-0.14070996172096617;-0.04411635108750378;-0.03472959273192666;-0.03286029315742922;-0.05124981497299763;0.12345801470626494;0.05698588446090902;-0.09228250079009936;-0.35485521085117866;0.33293462429345144;-0.03730358994585403;0.3714958598398388;0.054722004423373605
A;-2.8;-0.05617840521248496;-0.03924287971513607;-0.23843529238476435;-0.1313933074992759;-0.04417013628098765;-0.03503261002013103;-0.02657013449037887;-0.04798846270091284;0.13001621387422713;0.05958917257696239;-0.08450687171803173;-0.348131394178401;0.330481427762364;-0.04838984718481898;0.3687127454331147;0.040184097563960464
A;-2.7;-0.0437201217908596;-0.035057950530521076;-0.21875750943583494;-0.12205812546648609;-0.044211126484965835;-0.035181516781849;-0.01992236171406636;-0.04444429196828836;0.13576022461826298;0.06167076478575906;-0.07638393474695304;-0.3396753395368439;0.3268725429571022;-0.060027685793842434;0.3633841340441455;0.02308309150095411
A;-2.6;-0.03108327806860789;-0.031215668536017205;-0.19928052849067246;-0.11272016115302463;-0.044238874836151076;-0.03519119779599533;-0.012926557554921059;-0.04064703829665062;0.14084745473599636;0.06330224341213464;-0.06794304632299575;-0.3297435244721918;0.3223400944119419;-0.0723440836782192;0.3557057303722537;0.0033923204662098527
A;-2.5;-0.01841295099059348;-0.027603570739161754;-0.18002573454513904;-0.10340903879281083;-0.04419508671695782;-0.035059626656035014;-0.00576872657479599;-0.03670835788236282;0.14544819531996822;0.06458865704721539;-0.0593567181490009;-0.3188766645412222;0.3172296226047191;-0.08520075779888181;0.34607504690397395;-0.018300646750058824
A;-2.4;-0.005823115892566122;-0.024111519854999486;-0.16100595744009993;-0.09415188303754185;-0.044031443960451444;-0.03478915962627749;0.0013910499356982187;-0.032731929352051825;0.1497627292467083;0.06564449197891475;-0.05078090393745094;-0.3076258888723482;0.311929615540377;-0.09851989813345208;0.3349065401808753;-0.04150543205409818
A;-2.3;0.006351349036846976;-0.020769164350746827;-0.14236814672434672;-0.08499790871624668;-0.04369019087820769;-0.03434173708524613;0.008348125309256493;-0.028762113412088786;0.1533671249578097;0.06632874590007987;-0.04234265628274558;-0.2956749084495136;0.3059190110356287;-0.11158296072896956;0.32208020927981007;-0.06514189956433114
A;-2.2;0.017650486453700154;-0.017627553387892902;-0.12430675943151037;-0.07600689039644148;-0.043087876200767816;-0.033660571338905765;0.014822505692291432;-0.024851445613924383;0.15563369258191617;0.06642575417313212;-0.03420581273049317;-0.28250643025911604;0.29838783217508524;-0.12337565495438474;0.3073441210897272;-0.08774012197642467
A;-2.1;0.027927348720083955;-0.014741729093732836;-0.10691939966613973;-0.06721004100622086;-0.042220106709415006;-0.032730571063685154;0.02076901981894186;-0.020990797595018762;0.15629282791184718;0.06583743744780657;-0.026388744495321914;-0.26780840685541185;0.2889964054113525;-0.13353944698662756;0.29061157292636963;-0.1088334376586424
A;-2.0;0.03702307168013608;-0.012183547377833115;-0.09031544184466789;-0.058640258166606785;-0.041086804052647086;-0.03153415559577155;0.02614847354288541;-0.01716067719053349;0.15501563618878134;0.0644402820788903;-0.01889955886838579;-0.2511740934757396;0.27732145406542763;-0.1416676692697485;0.2717425090554908;-0.12792922623197
A;-1.9;0.044494804389240805;-0.009915995227493646;-0.07463580345861054;-0.050349349605877336;-0.039569759701625795;-0.03002319412988097;0.03060917602115054;-0.013476820031709469;0.15142088542371912;0.06213131901120139;-0.011976056751419328;-0.23253150337302064;0.26287716471689837;-0.14688192648806186;0.2507248142072145;-0.14352332787613786
A;-1.8;0.049978935610925035;-0.007871254885122525;-0.05997880953283108;-0.042379056610754695;-0.03755593719135408;-0.028161723520778725;0.033828774237162296;-0.010063097382584596;0.1453000240060769;0.05887588138661881;-0.005848680730214717;-0.212017327761316;0.24540611558945802;-0.1485036413117058;0.22767560783860574;-0.15433030580661633
A;-1.7;0.05295446953531613;-0.006046866563539588;-0.04653115420570053;-0.034793296009457464;-0.0349332093008341;-0.025890550985697036;0.035434508656451036;-0.0070211221540161795;0.1360840661433116;0.054496605307715384;-0.0007578452959899895;-0.18933054512539815;0.22420694253737938;-0.14544205090460327;0.2024637624308765;-0.15862540918834966
A;-1.6;0.05293692157033636;-0.004426192701801668;-0.03445746255094129;-0.027649449193178022;-0.03158708313571479;-0.02315575322480745;0.035062491671156826;-0.004457816976776829;0.12328274833128461;0.0488471100521477;0.00305877071829852;-0.1642617522436367;0.19865795471123437;-0.13669806212521785;0.17499918452414676;-0.15478523531260535
A;-1.5;0.0501814441318027;-0.0029947084503216814;-0.023683906045903313;-0.02093253059562361;-0.027578041752471805;-0.01999842116036188;0.03289609923479009;-0.0023399178666403397;0.10727375373764758;0.04206963815911635;0.005700584942927911;-0.13712242730669466;0.1692660327922786;-0.12281894936602944;0.14561575261739268;-0.14353059259720613
A;-1.4;0.04514627824592754;-0.0017649711286429337;-0.014089023390670086;-0.014612556106566643;-0.02303599880739693;-0.016485363864406466;0.02929853351280609;-0.0005731787807201627;0.08860033874689677;0.03435211722851905;0.007384601767207677;-0.10823736568826581;0.13678600523261597;-0.10474304261391998;0.11470944739677069;-0.1262530585027264
A;-1.3;0.03821099530076122;-0.0006544642149268753;-0.005510028648957999;-0.008647887027481538;-0.01799328012658652;-0.012675984626293602;0.02445667145288155;0.0008387981539292877;0.06796314318228625;0.02596682843787912;0.00819984334783963;-0.07832484737204015;0.10201913306675081;-0.08336191595946119;0.08276852893777331;-0.10401025918617002
A;-1.2;0.029861260505195553;0.00042083705667650406;0.0022521046349739393;-0.0029858163050215936;-0.012506686661375888;-0.008643247052906311;0.018634235385986575;0.00191156233220946;0.04618999672321067;0.01722886855907335;0.008282313340153946;-0.048184144893980374;0.06593355665699718;-0.05978780171925502;0.050346845484422253;-0.07819138991271668
A;-1.1;0.02030841059344546;0.0014015971801990545;0.009205135829149391;0.002368747282367245;-0.006693755728693684;-0.004423058645144806;0.012065079801631684;0.002734465213608095;0.023396675085955998;0.008166374988443525;0.007780999146576262;-0.017729823462544037;0.028806392423788907;-0.03438003862005079;0.017596298542548183;-0.049460740931658975
A;-1.0;0.009654952392161853;0.002233554801399862;0.01532590594328731;0.007401817292064905;-0.0006412839756384514;-3.805978195758897e-05;0.0048917245329866965;0.0033709803674841776;-0.000420209419074169;-0.001231317571076751;0.006789600414355945;0.013183402147892709;-0.009264621044456689;-0.007277236927131447;-0.015411620639273593;-0.01814111097308757
A;-0.9;-0.0017024956742641706;0.0028403028016716902;0.02067463135035208;0.012125506413544151;0.005474970232602683;0.004454400358709698;-0.0024878933602274778;0.003962980744566469;-0.024974338098862958;-0.010884591430734059;0.005560552935370167;0.04459400625386545;-0.04772968930911592;0.020808968384113058;-0.04841373564344753;0.014523268769117692
A;-0.8;-0.013391115309116408;0.003138709384137961;0.025298923483239477;0.016548017638501555;0.011478072446182264;0.008999522168245289;-0.009687907562122344;0.004653417011532435;-0.050029047345589994;-0.02073334525029491;0.0043412714628476845;0.07659332773473371;-0.08609784082794647;0.049224425864374144;-0.08118735733487448;0.04735011701653846
A;-0.7;-0.025225419136742033;0.0032698925826313285;0.029347168260420275;0.02070884438743814;0.017437518301020916;0.01356014940824446;-0.016757030349812685;0.0053470705155058695;-0.07497707470760151;-0.030520142439427023;0.003072769104456974;0.10835442557033947;-0.12385851309316376;0.0774138951299661;-0.11337330361498399;0.07992597512785071
A;-0.6;-0.036992579638315704;0.003442359742164669;0.033028491894897094;0.024666930799172704;0.02347783365813161;0.01809569663191324;-0.023805744911509052;0.005895242070996121;-0.09900006257479177;-0.039894222213672226;0.001644718868414552;0.13871469016205618;-0.16034388158902058;0.10468734524658485;-0.1444880413102796;0.1118249068246655
A;-0.5;-0.048686859863522614;0.003762308248011159;0.0364030532921058;0.028433217568268;0.0296737539442411;0.022589077869752394;-0.03098261631314303;0.0061977706941569455;-0.12180597046241104;-0.04871748828121003;-5.356033501247026e-05;0.1671484818572313;-0.19540936011688892;0.13089755461566766;-0.17439107332857162;0.1431314543004767
A;-0.4;-0.060333446547931935;0.004359431133443614;0.03953933491440864;0.03202167601844863;0.03612892801226053;0.027026510871864584;-0.03849211311483902;0.006127328416320799;-0.14308155437711711;-0.05683784568893291;-0.002170069922178941;0.19304806588037926;-0.22893697608646502;0.15593264143920083;-0.20294911006834937;0.17404289134927353
A;-0.3;-0.07153671162516773;0.005348401449484896;0.042648614325527134;0.03549404388590549;0.042840947018524034;0.031352024302930825;-0.046167781537222896;0.005661443935841559;-0.16204320470266786;-0.06394587495913617;-0.004631772952373048;0.21556776864241534;-0.26005160760865653;0.1788736314032513;-0.2295945829250261;0.20353456549336713
A;-0.2;-0.08188358142507468;0.006786039329586657;0.04590652510865745;0.03890086039959151;0.049748814948502584;0.03550917152255284;-0.05375212463910539;0.004834419467410811;-0.17804191815397097;-0.069796395587717;-0.00729993872593826;0.23412284749705425;-0.2879224380392893;0.19884342736180605;-0.25380934165008107;0.2304818883150075
A;-0.1;-0.09099933473510013;0.00885456684027286;0.04957174064126413;0.04232053793526713;0.05692100187288229;0.039442959453789506;-0.06119255626190723;0.003557151459423924;-0.19015388772708341;-0.07401380178740036;-0.010178542466937834;0.247586814956672;-0.3116658240778305;0.21488044586022959;-0.2750245845203789;0.25396558932297
A;0.0;-0.09850693900341945;0.01171033596095139;0.05388782938022896;0.04582734158426405;0.06440105643357708;0.043100248699825094;-0.06839501602874998;0.0017667633243534375;-0.19752332472442902;-0.07625371683584303;-0.01324260379212161;0.25495642446945244;-0.3304118812688399;0.22606079563521808;-0.2926777476355902;0.27305157827542637
A;0.1;-0.10450659981248211;0.015259301578691264;0.058736166997308104;0.04937611325842273;0.07209700137403763;0.046480556935051265;-0.07532993833906859;-0.00047423129931711827;-0.20053646714469942;-0.0766750595837693;-0.01645477411085028;0.2567458872048656;-0.34447921910600865;0.2327194124297871;-0.306986448919897;0.28796091114644895
A;0.2;-0.10928138695506284;0.019368691290688744;0.06390501767381807;0.05289185275548203;0.0799220992202816;0.04960219818906397;-0.08207593675964492;-0.0031088406808532643;-0.1999138090693835;-0.0755655758110172;-0.019830302052370685;0.2537986196776676;-0.35460883484857586;0.2355992739944619;-0.31845366967845656;0.2993920861019319
A;0.3;-0.11289022192463705;0.023832200884958965;0.06921856405516635;0.05631338176332079;0.087668770822809;0.05246979909685168;-0.08839157767141209;-0.00595356455989382;-0.19628762550618095;-0.07320065746134574;-0.02319031262916882;0.24712559054525007;-0.36109147507786243;0.2351358481539223;-0.3272480381789187;0.30742514951112554
A;0.4;-0.11545711289311811;0.028406899266324004;0.07445069872940913;0.05956317900005814;0.0951089821813409;0.05509554822269047;-0.09404102778656215;-0.00880536038700952;-0.190467455664022;-0.06992816410565084;-0.026351543459251614;0.2379583185055747;-0.36438484148838857;0.2319400643349332;-0.3336510707867646;0.3122942274117957
A;0.5;-0.11719660306956659;0.03310163710156644;0.07953445476179244;0.06261812979807324;0.10228618557939217;0.05748946626953089;-0.09925136192946643;-0.011723634059982668;-0.18274891562600004;-0.06585323512044683;-0.029435337624901248;0.22648110120574105;-0.3650339115500456;0.22644610732103665;-0.3380698297096689;0.31459464566308615
A;0.6;-0.118249116533371;0.037959185290151076;0.08446301988710125;0.06547701432667008;0.10926323510118197;0.05965637144630698;-0.10422756742213751;-0.01477997569863887;-0.17325547735395208;-0.0610123223278185;-0.03255635857940442;0.21267973486060265;-0.36340068932071645;0.21891384427813732;-0.3407842116251487;0.3147571997043759
A;0.7;-0.11897657860450384;0.0429443925746007;0.08907439148214635;0.06808307288515447;0.11607121758657302;0.06161875382728388;-0.10927137201282161;-0.018029675748514995;-0.1625708538556312;-0.055623451140065505;-0.03587006114816793;0.19703755826332192;-0.360375574071095;0.21009996589522872;-0.34244691634681423;0.31372245016303335
A;0.8;-0.11974039567978778;0.048039271738244516;0.09322519388726658;0.07038733679758735;0.12276088609119373;0.06340012974951659;-0.11470806684019791;-0.02154294887452557;-0.15124183098952138;-0.049888307248848296;-0.03954717108237449;0.1799728595799932;-0.3568459275250513;0.2007450924139933;-0.3437122302239324;0.31244646777695717
A;0.9;-0.12039072367376935;0.053050706202075304;0.09685838151731563;0.07237622434379443;0.12910277808725246;0.0649987325192889;-0.12010141189843065;-0.025087609622733265;-0.13963248048983257;-0.04398703795024694;-0.04329968964194442;0.16232479828358604;-0.3526159269269469;0.19092857453903767;-0.3443809154628763;0.3105316193220302
A;1.0;-0.12067382554057282;0.057703274610743094;0.09989208642604286;0.07402706027519557;0.1347610990881809;0.06640775986481984;-0.12479241554532589;-0.02832720300956848;-0.12817646745001454;-0.038143783429312794;-0.04670114122484814;0.14520898903517954;-0.3472816283994007;0.180645677635221;-0.3440821107836971;0.30726532338913426
A;1.1;-0.12039427638014999;0.06190796644211094;0.1023853309379259;0.07537114354796604;0.13960992214333423;0.06762313467319903;-0.1284552362617159;-0.03111369859739077;-0.1169474909148871;-0.032413930761749477;-0.049539812399272076;0.12901266576401604;-0.34053476907132385;0.1697784574539174;-0.3425630804947648;0.3022112843400109
A;1.2;-0.11929897800009925;0.06556249371960732;0.10441517027395264;0.07644748848900473;0.14350042370128424;0.06863913168069136;-0.1306859767492809;-0.03327032138663122;-0.10598412436924587;-0.02684416396084366;-0.05155738765307105;0.11414599636702727;-0.33194078098591717;0.1581293606241827;-0.3394718676328541;0.29478835536049974
A;1.3;-0.11740730830578006;0.06842766443351511;0.10579055423684647;0.07718772490257919;0.14618244146916348;0.06945971154949016;-0.13115498548262333;-0.03457349340953675;-0.09593130587417775;-0.02172259264095988;-0.05252183111879938;0.10170550242911358;-0.32168202899495935;0.14608053538545418;-0.33490588162151624;0.28492100847753843
A;1.4;-0.11484973883510818;0.07032066292974726;0.10631459654666386;0.07752000810905013;0.14748546586579847;0.07009314431733005;-0.12972863922502514;-0.03488394154917218;-0.08742750778922659;-0.017321710288233927;-0.05232070643500819;0.09261411043251844;-0.3101782568891265;0.13412685472885055;-0.3291625476682114;0.2728259529123038
A;1.5;-0.11152755705890094;0.07094047508758017;0.10581422166890864;0.07738724667781138;0.14708198618716883;0.07054489193437252;-0.12585742007245754;-0.033883260520446434;-0.08113421626058237;-0.01395156040152079;-0.0505867076165023;0.0881762356264788;-0.29735057421150746;0.12254907543531068;-0.32210981261477656;0.2581374330091881
A;1.6;-0.10738628414287277;0.07001259471565202;0.10411061302456126;0.07672804351095142;0.14467832824979387;0.07082015046678736;-0.11907963325435683;-0.03129286818624055;-0.07768996110841009;-0.011907144110479884;-0.04700722551343062;0.0895922996727585;-0.28320930835521363;0.11165131722957788;-0.31369994817848124;0.2405877728347976
A;1.7;-0.1025211173357583;0.06770526257193499;0.10134986116149225;0.07560480049801832;0.14047888269588382;0.07092790468456034;-0.10974445336559507;-0.027287138630475605;-0.07689764354671524;-0.011089955501986548;-0.04178968315010678;0.09634607325824263;-0.26805144933801905;0.10148203423276003;-0.30422393378389145;0.22057855142804783
A;1.8;-0.09699574464272409;0.06429725669836817;0.09780696842297054;0.07413280356974195;0.13480805060258128;0.07088058654545071;-0.09832533591585074;-0.02213005662209322;-0.07828258457597759;-0.011280505140573549;-0.035225349905375625;0.10747430845634875;-0.2520841487169436;0.0919353409136634;-0.2939185522983738;0.1985493983303943
A;1.9;-0.09110745448158841;0.06005753332115393;0.09357331088432552;0.07234149159450354;0.12799605076121967;0.07068169895850396;-0.08554786571612333;-0.016161446214622455;-0.08158374704502958;-0.012329153652189007;-0.027756000473157405;0.12205498334159315;-0.23601617180815282;0.08317756264390797;-0.28346274753218026;0.1753205695629534
A;2.0;-0.08517926024785893;0.05531776693538326;0.08878421239993983;0.07027710592133918;0.12044522310637307;0.07033584547020144;-0.07225652059677784;-0.009786591339993267;-0.08642580135220168;-0.01403203008190923;-0.019899535800564028;0.13892470007559377;-0.22060599362756772;0.07534496209682873;-0.27359035471240034;0.15181681262088542
A;2.1;-0.07910039492081555;0.05018568378501698;0.08367785263530081;0.06804899705313616;0.11228789563886998;0.06986315628025608;-0.05847062461981878;-0.003052826506073636;-0.09253237622014954;-0.01628047807266153;-0.011663871285530814;0.1577475902799126;-0.2056494218309295;0.06828126627595621;-0.26413937187240144;0.12801289304183516
A;2.2;-0.07274746483200278;0.04470520262071709;0.07843329858900816;0.06574202183628053;0.10358548092144959;0.06928251102055105;-0.04410326103968282;0.004052405124679748;-0.09973708664950198;-0.01901745285080514;-0.0029898478183780774;0.17840946168086114;-0.1908992713904185;0.0618585229910078;-0.2549023402527659;0.10378285070220361
A;2.3;-0.06600105146830426;0.03908348598385558;0.0733981184919772;0.06351159796767547;0.09458015057218461;0.06861723670694175;-0.02930649803923069;0.011397408123292596;-0.10755891565022235;-0.022042931176771585;0.006028241681193425;0.20021619765793597;-0.17615062214177435;0.055830777466117976;-0.2457305432335719;0.07919871832309155
A;2.4;-0.058718902197558265;0.03350983239987482;0.06891763519433347;0.06151297884216955;0.08549459579864438;0.06789201108771303;-0.01417885426015758;0.018873991492046827;-0.11552421699003368;-0.025163300301143554;0.015328518347354825;0.2225259536066766;-0.16113174035153666;0.04993338520444768;-0.23641333835209188;0.05426913867910432
A;2.5;-0.051293511648538015;0.0281556281281361;0.0648885217671431;0.0596863893598476;0.07655686303429476;0.06710136108708786;0.0005821280031170217;0.026185778004388593;-0.1235889187061554;-0.028318444415468935;0.024486673927601288;0.24468962909330916;-0.14668711041344018;0.04445074965712825;-0.2277540957042028;0.02979436159281068
A;2.6;-0.0442942913294333;0.023234219278841728;0.06111202741162636;0.05792391774342143;0.06804890290751775;0.06623090085403982;0.014011374024544554;0.03293353314519387;-0.13177250884703628;-0.03145641815049194;0.03291476267739135;0.2659067997900484;-0.13406234398458317;0.03982490887143797;-0.2209234656929535;0.006904793571569812
A;2.7;-0.03799082216863425;0.01879472917591407;0.0574543629347124;0.05615884973040952;0.06006420499517384;0.06528212737480787;0.025737375518261496;0.03897355655914159;-0.14014830960925462;-0.03458560214725015;0.04038992526783991;0.285940569985603;-0.1237659541924101;0.03628910271986374;-0.21640206968619857;-0.013941404425430903
A;2.8;-0.03270447736464366;0.014876082677234947;0.05372595295935412;0.05429787347813697;0.05268733532096537;0.0642530816736393;0.035343211961698706;0.044150378574628;-0.14883912807253719;-0.0377311451655018;0.04666110286132352;0.3045713887475152;-0.11640288679919042;0.03412685247437208;-0.2147575785294542;-0.032226919954905675
A;2.9;-0.028798626056251386;0.011751582812927097;0.04996528260110633;0.0523455562508115;0.046255635812735285;0.06314237103483267;0.042018856995420295;0.04809521824004381;-0.15763993856806469;-0.040761844692168925;0.0512329851005866;0.3208790419208143;-0.11286430742581999;0.03356519524416823;-0.2168318122255517;-0.0470229427177431
A;3.0;-0.02649421759527204;0.009678587791372095;0.04631265141294705;0.050357284319995976;0.04108420163596671;0.06195755922225654;0.04514629740624487;0.05050895341205508;-0.1662776863836415;-0.04353191300686676;0.05372761328487674;0.3340297530202825;-0.11374277245002773;0.034708934836051863;-0.22318719184532831;-0.05762327465923445
A;3.1;-0.02631362086561584;0.008942694163644127;0.04267168809070121;0.04826925166013041;0.037527723255448286;0.06068526058219392;0.04371024291518222;0.050945702317583885;-0.1745978203304448;-0.04591583218817963;0.05351954783598156;0.3429748987148311;-0.12022033602707527;0.03788663365545686;-0.23494062873096944;-0.06288974270045689
A;3.2;-0.02871376028199002;0.009816369207517717;0.03898940560873232;0.04604038371192409;0.03592360318209353;0.059315922869620064;0.03679251423609642;0.04899823806968495;-0.1824404544798588;-0.04779267222080952;0.05004343019484159;0.34674798441288;-0.133361100430597;0.043387678961997356;-0.25309175875793777;-0.061778290214973275
A;3.3;-0.03343715557898275;0.012191802791992501;0.03539602665229857;0.043742706841504386;0.03617788814373668;0.057882656177877134;0.024878224422986095;0.04486303455395224;-0.18977452768033132;-0.049184897854330334;0.04359968349709642;0.3457206348111246;-0.1524838943845177;0.051029700272819056;-0.2769982787812353;-0.054797191908735776
A;3.4;-0.04009001608875806;0.015837739454299005;0.031986335870067606;0.04143672000676091;0.038057779608001496;0.0564239859929998;0.008794516198871394;0.038890716678477544;-0.19663989052644393;-0.05016470485936653;0.034696634417922256;0.3406244388416999;-0.17649610867272703;0.060527770175930584;-0.3056353654270705;-0.04285811705422837
A;3.5;-0.04814040243902884;0.02061103926856589;0.02910460210701782;0.03930548808164591;0.04141775750987797;0.05498994020951775;-0.010596668649454355;0.031426308408490033;-0.20298224339412752;-0.05077231390038861;0.023871197604511396;0.3321583690196446;-0.20427559594245714;0.07155621214285768;-0.33791625661735836;-0.026809951451629566
A;3.6;-0.05695265548760009;0.026314798487343083;0.027121988261924912;0.03754850679776389;0.04605089125183248;0.053636497995711796;-0.03223182772327837;0.022900970630855166;-0.20876216354040356;-0.05106697274195815;0.011784097246041236;0.3212089488359047;-0.2344465268077256;0.08371785441110235;-0.37251509674777594;-0.007725837445683226
A;3.7;-0.06647977945073347;0.03280697257104048;0.025895728440754162;0.03609953411521616;0.05182225803673113;0.05237221182839891;-0.055827212971872764;0.013441863126978815;-0.21402305659288867;-0.0510839407217869;-0.0014017106226222875;0.3080231645565963;-0.2666030852463468;0.09690380745227589;-0.40906212651879414;0.014010938307719378
A;3.8;-0.07676732884373028;0.03999618755922363;0.02525663833989178;0.03487634096405934;0.05864992750231934;0.051197484110814706;-0.08128385510488084;0.0030973415770840784;-0.2188031268305224;-0.050844392143770456;-0.015638291120115166;0.292689808833686;-0.30059503226596185;0.11107111402304293;-0.44741996517491245;0.038230010188322616
A;3.9;-0.0876399055238748;0.047644328125197255;0.025062760574795284;0.03381835115601994;0.06629660748071187;0.05013071276417369;-0.10802486035293862;-0.007876620962829373;-0.22317812093374467;-0.050414817573463555;-0.030582645155248445;0.27572968693526145;-0.3356230434066392;0.12601339406807543;-0.4868607430449057;0.06420208615333323
A;4.0;-0.09895886044178503;0.05551664255661137;0.02513430019038765;0.03284525417267847;0.07452587960078594;0.04918502836848759;-0.13552279618658464;-0.01924336098529844;-0.22723183184324824;-0.04986116453420131;-0.04592464389068729;0.2576273732661529;-0.37096013671589834;0.14153915056639388;-0.5267236013333374;0.09124061757570523
A;4.1;-0.1102465620306523;0.06356820489587545;0.025880368655954555;0.03216916564339023;0.0832816647436978;0.04839891964298326;-0.16312796159582538;-0.030753166062003956;-0.23091007731419033;-0.049211676006866156;-0.061258497159215386;0.23894113238255654;-0.40586617556605553;0.15740957517259746;-0.566233662753227;0.11881719371216715
A;4.2;-0.12085260211429993;0.07177857702092805;0.02792103486831543;0.03210946977926632;0.09253128707939773;0.04782699167077764;-0.19002134606899007;-0.04209650995809433;-0.23411526728470022;-0.048491166302295774;-0.0760659244374049;0.22035908866078535;-0.4394022132133948;0.1733267789969859;-0.6044063017251204;0.14630483800764793
A;4.3;-0.13053918271355247;0.08015716428309361;0.0314747153574535;0.03277642335352304;0.10226863197885505;0.04748029907707485;-0.2159206992406824;-0.05317402583910691;-0.2368029690204274;-0.047705306126869296;-0.0901782053461877;0.2021191538388556;-0.471314894710507;0.18915865072995475;-0.6409260712130518;0.17351484682396467
A;4.4;-0.1390439790095277;0.0887355342255498;0.03681080601647668;0.03430537207595563;0.11250643708000574;0.04737006689519685;-0.24054890607675877;-0.06389174717031354;-0.23892112527583187;-0.046857221189154696;-0.10342851311308898;0.18446036955444378;-0.501383630597787;0.20477516957747444;-0.6754952560570047;0.20029404869288747
A;4.5;-0.14578577586570862;0.09738483094073214;0.04435238872529812;0.036920843446988094;0.12311676663660842;0.04755357195538501;-0.26300916581278205;-0.07389265697937786;-0.2404076135561226;-0.04598665114217315;-0.11525532469878907;0.16811625040213696;-0.5284399412814045;0.2198493228171774;-0.7069758228411605;0.2258010460561044
A;4.6;-0.15030281952012992;0.10594405453184308;0.05435755146996435;0.040763979911206505;0.13394298626979717;0.048078622794443415;-0.282499512967821;-0.08285117823804766;-0.24122132441305588;-0.04513267935164533;-0.1251619353197737;0.15372807958900192;-0.5513863651039621;0.23407742408778587;-0.7343252724577987;0.24921332494819826
A;4.7;-0.15187484246853966;0.11431024882860097;0.0674158495895476;0.046144151502739206;0.14486792649812674;0.049007036548625926;-0.2980025506288914;-0.09036567510227012;-0.24130858271420141;-0.044349129258505204;-0.1325076508714016;0.14218678884377733;-0.5690027933643034;0.24710702518108674;-0.7563152244522424;0.2696540883113574
A;4.8;-0.14984699229334808;0.12237553915206156;0.08404828094301742;0.053335772474830456;0.1557753363226797;0.05039780315343867;-0.30857192224937285;-0.09606161431784033;-0.2406130948072116;-0.043682760746927674;-0.13669744621559432;0.13430200625569144;-0.5801168135707897;0.258602996407459;-0.7717807503071406;0.2862834292044312
A;4.9;-0.14454146227746456;0.1300995733982946;0.10381402829538988;0.062111233078933736;0.16661099980562044;0.05220749416536519;-0.31452426661378535;-0.10006190269999937;-0.2391697729238862;-0.04312098888951299;-0.13796054840854888;0.12977284898373598;-0.585120291499984;0.268593288550091;-0.7810978916805862;0.2992592244500516
A;5.0;-0.13651921282160462;0.13748168347758316;0.12605517295031277;0.07212844147740594;0.1773460239571234;0.05435960293312547;-0.31652453873252445;-0.1026276148487768;-0.23706150561254802;-0.04264525123425589;-0.1367533064893618;0.12804279382138395;-0.5849215718275085;0.2772178001498733;-0.7851194529816947;0.30906056722231234
A;5.1;-0.12636184292035235;0.14445863836199901;0.15006977637793462;0.08302702066844869;0.187939330946838;0.056807445719130545;-0.31516146306589526;-0.10398646919640808;-0.23428868564264071;-0.0422059563138002;-0.13347723735531303;0.12845958025917792;-0.5800307486172871;0.28456826570038585;-0.7844231659486187;0.3159714199226693
A;5.2;-0.11478992430493573;0.15097511611215708;0.17501604270479643;0.09437368949508684;0.19835604371477933;0.05948926034285584;-0.311201619902121;-0.10443573904118941;-0.230866160764295;-0.04174560023861096;-0.12865007729030165;0.1302157110900739;-0.5711775347013592;0.29078730941314124;-0.7798042962079794;0.3204133387690753
A;5.3;-0.10197734401790015;0.1570413422988537;0.20064376807205475;0.10603825475533224;0.20855066574152836;0.062351437757925066;-0.3048825326830837;-0.10406627958831582;-0.2269188948656895;-0.041297129542391176;-0.12244861717916056;0.13326472552076507;-0.5589322788232698;0.2959275472996348;-0.7717179300735761;0.32261919028610553
A;5.4;-0.0879691562960696;0.162663002771664;0.22684585172812044;0.11796568332512525;0.21847870023355043;0.06535721376108361;-0.29628513518230676;-0.10290710928946178;-0.22255865610313208;-0.040900287415191805;-0.11494458687253406;0.1376972007730859;-0.5436555943090156;0.3000032329650866;-0.760419900461903;0.3227044352569717
A;5.5;-0.07314385696673309;0.16787023549117475;0.25315399945242323;0.12991031378129314;0.22809785404619332;0.06842142629882719;-0.28591805789925756;-0.10115628271421584;-0.21793893484772742;-0.04057872861878131;-0.1064954549799737;0.143247646905162;-0.5263093299861188;0.30313863154504084;-0.7467289800081964;0.3211248529400068
A;5.6;-0.057843467692911155;0.17269907895356162;0.2791476664947239;0.14165151298728773;0.23736854945901698;0.07146099873388057;-0.2742599577178016;-0.09899941010580249;-0.21322539003757157;-0.0403636562817522;-0.09743763858170862;0.14970345220104098;-0.5078485111922406;0.30545997962885085;-0.731448217456597;0.31833251435845167
A;5.7;-0.04250357928739401;0.1770719513958845;0.3043288394908159;0.15293838854952746;0.24627677864276265;0.07447126774906243;-0.2617131065341773;-0.09658996985811985;-0.20835252107641455;-0.04019228255386942;-0.08803681600246493;0.1564910643400621;-0.4883501732078326;0.30701674973885673;-0.7148098229782445;0.3144328680641211
A;5.8;-0.027682136510872368;0.18087649061032707;0.3280604615895286;0.16344958269586396;0.2548103184412569;0.07745780805768376;-0.24876196092318742;-0.09411374283814866;-0.20318211776068829;-0.03996346997351674;-0.07860940123490479;0.16281651510578565;-0.467751484496052;0.3078508583295769;-0.6969965911282046;0.30949069726108114
A;5.9;-0.013547845117799717;0.18405061466658612;0.3501517822820972;0.17309533712660752;0.2629546861423506;0.08043467587151332;-0.23553440675736664;-0.09161276075549041;-0.1977046660831805;-0.03965966549320665;-0.06923697713903043;0.16848071199312953;-0.44594868110923347;0.3079818495376445;-0.6780136543027808;0.3034860923442917
A;6.0;-0.000267068840906326;0.18652387361810607;0.37042526799307973;0.18179386619456928;0.27070221636192526;0.08342590496289803;-0.22214292726113577;-0.08912254031699396;-0.19188739551001888;-0.03925471620043197;-0.059987278279395984;0.17325849530770832;-0.42273763254758645;0.3074248968906206;-0.657799042005422;0.2963651306881667
A;6.1;0.01154774888930099;0.18822240293391612;0.3881298679276295;0.1891576372062449;0.2780066342919745;0.08638489154117757;-0.20918839169495068;-0.08687610155416081;-0.18567269367050088;-0.038671748503855685;-0.05126879529424633;0.17639263590150422;-0.398519144151944;0.30624668282548395;-0.6368687753345199;0.2883606173853792
A;6.2;0.021355112812553756;0.18909671976136533;0.40257652284330314;0.19482902574282956;0.2848076403359481;0.0892483132119799;-0.19722962368827462;-0.0850892199362221;-0.17906653795311644;-0.03786373154221412;-0.04346790276903567;0.17728405302604955;-0.3738555186885719;0.30451906205951307;-0.6158202706304774;0.2797460378598755
A;6.3;0.02845017460425936;0.18906156983649147;0.41296741801311176;0.19839879342020872;0.2910947764784537;0.09199005456694032;-0.1869587893028088;-0.08403101671545987;-0.17194248721353134;-0.03671889569585929;-0.03704043214312236;0.17496902628210242;-0.34901021313476566;0.3023359969565411;-0.5951296027049491;0.27076985070962056
A;6.4;0.032178430766041544;0.18803713725231752;0.4185369745577834;0.19947281205795964;0.29684243976823943;0.09457597902893289;-0.17901523714617856;-0.08394951594802613;-0.16419520730156112;-0.035138683597455866;-0.032411975896379897;0.16857572570065482;-0.3242755032088622;0.2997772904577527;-0.5752662085268057;0.26166187535247687
A;6.5;0.03281075117937604;0.18605229206228824;0.4195554994269135;0.19819530069440194;0.30200085781440755;0.09698768616122733;-0.17317588043111182;-0.08474296139688708;-0.15605328889844028;-0.03323323382054433;-0.0294438276919069;0.15869269206759462;-0.29987928083197346;0.2968650352032829;-0.5562932039933717;0.2524335930036301
A;6.6;0.0308689931051509;0.1831692096737818;0.41662455199660764;0.1948845756612645;0.3065436931379266;0.09922791517843521;-0.16899484143449944;-0.0862188973520448;-0.14781112807784336;-0.031159996569102955;-0.02784161119394213;0.14625797201477142;-0.2759386075145871;0.2936274942499959;-0.5381147335909962;0.24304765848742615
A;6.7;0.02681623781145337;0.1794273765618133;0.41009194554771744;0.18971722861916973;0.31033879712128565;0.1012376800614474;-0.16602336492622266;-0.08818673995379811;-0.13977658225981138;-0.02908081626831427;-0.027343960120068678;0.13222814960896678;-0.25280232762119326;0.29000164089278746;-0.5207587501734068;0.23340534995573758
A;6.8;0.021245640656164078;0.17488387896505486;0.40045403786490974;0.18294690590879892;0.3132521943866462;0.10295993557950345;-0.1636950465422165;-0.0904080290944198;-0.13230540778245725;-0.027185976801187284;-0.027611825240503762;0.11776422900236017;-0.2308187050010142;0.2859192311361989;-0.5042036700187449;0.223383146644764
A;6.9;0.014349695789518613;0.16958403523875987;0.3880625125754551;0.17476460231296365;0.31533776667291136;0.10442360689928698;-0.16191292064736912;-0.09283166262602993;-0.12551757234798;-0.02553832778445564;-0.028556745713472553;0.1031758809072243;-0.20997030695459173;0.2814878872841935;-0.4884279649542087;0.2130798086565484
A;7.0;0.0061984676434239105;0.16355711664748096;0.37311876788867027;0.165281514351177;0.3166472772438862;0.10565237825357432;-0.1606835753472345;-0.09544966999268478;-0.11946808429252354;-0.024168330309130237;-0.030159819332628457;0.08856240516444958;-0.19021680837078048;0.2768099399088064;-0.47343718117117817;0.20260305700478742
A;7.1;-0.002807327662437409;0.15688094418031628;0.35625914124730906;0.15483987390448561;0.3172561672137215;0.10669315992907302;-0.15974196020386383;-0.09814047051377894;-0.11436873972436601;-0.02318303370320418;-0.0322124239328927;0.0745571455989078;-0.17153159334669432;0.2720131963028205;-0.45914154438419175;0.19204004312524425
A;7.2;-0.012295582185042342;0.14963398254498728;0.3381053155562568;0.1437740275758319;0.3172524108515029;0.10759694967268185;-0.15885390012866624;-0.10079560268398735;-0.11040164925568696;-0.022674578901911158;-0.03452277478989996;0.06171933780601879;-0.1538493771430991;0.2672331485080619;-0.44544077389924297;0.1814890779807392
A;7.3;-0.02196950926196184;0.14181997440130445;0.3186861920610715;0.1320843135547971;0.3164414656157222;0.10826613299368182;-0.1576546078978573;-0.10326404865464611;-0.10774451353682224;-0.022750592512273293;-0.03690540194851755;0.050718401145227965;-0.13748662865300076;0.26232157417350166;-0.4323608211333543;0.1707661365573916
A;7.4;-0.03146569142450861;0.1334322272127082;0.2979625184525432;0.11972981038122033;0.31454416498706683;0.1085625296365742;-0.15566823288066628;-0.10535102855314116;-0.10663648711193296;-0.023546036771290524;-0.03912764573561023;0.042424376531122965;-0.12292216792716104;0.2570516810760659;-0.4199692520757896;0.15959965449050273
A;7.5;-0.04071620527171138;0.12446703645270407;0.27579267548407405;0.10662183270409553;0.3114282889931088;0.10840605619214028;-0.15276893014126586;-0.10700500261673218;-0.10709582976753573;-0.02508360098516338;-0.04114532747603272;0.03702431334640721;-0.11032187695811047;0.2513244042663003;-0.40830148375027164;0.1478963420070878
A;7.6;-0.04967068385267037;0.1149130340047364;0.25196484949627607;0.09263189009964545;0.3069355142349215;0.1077020494497507;-0.1488247130471802;-0.10817363139766734;-0.10912336358245867;-0.027384254493015625;-0.04291883317740797;0.03468673095536934;-0.09987070991738012;0.2450087428784773;-0.3973958533214219;0.1355298811970176
A;7.7;-0.05784449038397721;0.10481399754342569;0.22682536183767832;0.07793497342506939;0.3009172603051118;0.10638503582884384;-0.14336529791338876;-0.10865571704465382;-0.11306113750077174;-0.030595609615861274;-0.04417289580929529;0.036427845792710745;-0.09200954669154626;0.2380260170088806;-0.3873343866835466;0.12237860400514311
A;7.8;-0.06477978220040015;0.09423326299764323;0.20083436938915167;0.06277199777366071;0.29330664650741367;0.10442863543484027;-0.1360068028262847;-0.1082824463075176;-0.11923510904571888;-0.034838469712735964;-0.04466303161560625;0.04315292859682596;-0.08709556937893215;0.23038213964707577;-0.3781993160938679;0.1084210734291986
A;7.9;-0.06994459245825002;0.08319802118401665;0.17423302532356022;0.047253267228232865;0.28387130036084685;0.10172677720561651;-0.1261570212369953;-0.10680854666753836;-0.12796076663464007;-0.04029206210669489;-0.044060378959814184;0.055979423295591246;-0.08558765049728212;0.22188687186752265;-0.37001197957968657;0.09339144216158779
A;8.0;-0.07283699319506898;0.07174492226411822;0.14730403853207985;0.03151487788105545;0.27242070104991;0.09819320980925594;-0.11328888314097924;-0.10401297854742486;-0.1395595835108292;-0.04713040476020369;-0.042064918086343495;0.0759622554218764;-0.08794190758890963;0.21239792576772265;-0.362829657413851;0.07708744534685508
A;8.1;-0.07366430428766968;0.0599252468699234;0.12010330795851587;0.015589573768265197;0.2591247227116322;0.0938809448481761;-0.09773671477432871;-0.10002630811387747;-0.15384433182027824;-0.05522495588608978;-0.03884246019287052;0.1025249705649749;-0.09392241414078928;0.2021044188026231;-0.35667985737609875;0.0597840022355518
A;8.2;-0.07284103079559845;0.04778133586036315;0.09253128868899374;-0.0005734164211190773;0.24421511832015552;0.08886159377862146;-0.08003442494291196;-0.09506521018305403;-0.17042985358198592;-0.06438557964579328;-0.03467524582543091;0.13460543206467745;-0.10304283724059538;0.19122265931477678;-0.3515151244961192;0.04180359457293914
A;8.3;-0.07068384313032627;0.03540375010451591;0.06484294094567389;-0.016817003501756744;0.2280337213659953;0.08327265831210573;-0.060786987687085514;-0.08935782706411532;-0.1892205055081897;-0.07448535191738115;-0.029848320418473406;0.17144945088634622;-0.11513633683500046;0.18016057981446476;-0.3475679990922682;0.023712407735005492
A;8.4;-0.06760714148243796;0.022886597279971888;0.03726907233934451;-0.03299446997530264;0.21097677896928202;0.07727307402544614;-0.04072026993107425;-0.08318185581646742;-0.21003544687311404;-0.08532717638569887;-0.024711043932716503;0.21206128593478923;-0.12993264026725093;0.16937410273843012;-0.3450631891497782;0.006144679577882783
A;8.5;-0.06379119987321058;0.010245647403488434;0.009637997367035744;-0.04921238641567616;0.19309214798273455;0.07085671721423248;-0.019984471155807593;-0.07660729019553703;-0.23254105617763443;-0.09690960663130355;-0.019347730227859072;0.2558721767851946;-0.14701641730948278;0.15883393646718513;-0.34379709242428547;-0.010925971978588578
A;8.6;-0.059319401530414595;-0.002502715452090243;-0.01817428159133616;-0.06555278305162027;0.17438729536071884;0.06400515868250878;0.001377846255826376;-0.06965884031330227;-0.2564893082586561;-0.10930228605997083;-0.013780840455634769;0.30255657181638007;-0.16609844461354673;0.14847257016913673;-0.3435989269580464;-0.027584182298006965
A;8.7;-0.05454045712269551;-0.01534765639541913;-0.0464543588925066;-0.0821840565432419;0.15496710030155247;0.056727339466917215;0.02305050809146969;-0.06247938318365143;-0.28128798249236997;-0.12221367662447769;-0.008193664148616442;0.35105070709692576;-0.18652370736967772;0.1382965186582359;-0.34418009383255743;-0.04379506465798588
A;8.8;-0.04978263839068209;-0.028282115311368372;-0.07550226213486066;-0.0992837397369648;0.1349179132801699;0.04902543135285731;0.04475699539348199;-0.0551969449116223;-0.3063883121520323;-0.13545242249025202;-0.002748187060354068;0.4003591815307137;-0.2076372265457156;0.1282801389984023;-0.34523124741797595;-0.059571273288002935
A;8.9;-0.045203470991284966;-0.04118891775860156;-0.10482061493760941;-0.11655430789959276;0.11459646303503046;0.04106465871654752;0.06596889837053577;-0.04799608613745132;-0.33193951718295267;-0.14899207710941154;0.0023385185931448227;0.45018805959895825;-0.2296667597219333;0.11888186060349382;-0.3472311025311594;-0.07429538362051602
A;9.0;-0.04097886094347469;-0.05391665135628276;-0.13370045585934864;-0.13356937065053387;0.09447284171171244;0.03306797438453524;0.08600053410338143;-0.04111311696897446;-0.3582154715569157;-0.16269192304273927;0.00678440968731886;0.5002397031815029;-0.25301398566263433;0.11074213707836877;-0.35087182512518744;-0.08710229053495944
A;9.1;-0.0370993649993423;-0.06636917726260183;-0.16169196841109112;-0.15006873057426695;0.07477625570885005;0.025151641618388787;0.10460078652315147;-0.034625840557108045;-0.3856918524776205;-0.17717300951994597;0.010520733401250926;0.5507495353908789;-0.2779516228502139;0.10413272769918303;-0.3565186936979128;-0.0976501609677971
A;9.2;-0.03352892714897937;-0.07844019972904981;-0.188261206495989;-0.16574204413889326;0.055759420608386456;0.01744866100138065;0.12150542193566255;-0.028612700266254176;-0.4148245454103767;-0.19293866704783147;0.013480678076707164;0.6019989982175451;-0.30485648409725563;0.09936693539500219;-0.3646208977307168;-0.10554581046941358
A;9.3;-0.03058422336703792;-0.09002515841110359;-0.21307238294557607;-0.18038287603362768;0.03780649406454106;0.01011610818451425;0.1360635915195279;-0.0233198450388874;-0.4454826982570159;-0.2094382048161716;0.01535645001016439;0.6531024020445515;-0.3336165992054063;0.09691759369249597;-0.3754711826846737;-0.11012500085628574
A;9.4;-0.02858762763790068;-0.10104903761282102;-0.23598171230504938;-0.19390142057263837;0.021214997277348324;0.0032628811199830743;0.14774025187541956;-0.01895916365773087;-0.47747327065085;-0.22621490785453346;0.01588256581812475;0.7031090276859908;-0.3639000769890828;0.0971103459283067;-0.3891385629072541;-0.11092054119991168
A;9.5;-0.027856559378705903;-0.11137832219637644;-0.2564425024558341;-0.2059607019123666;0.006470683683912792;-0.0028918360773020346;0.1557515000309488;-0.01581643003519151;-0.5101788967168002;-0.24180792207974733;0.014704075662473226;0.7509192315721438;-0.3958581121972049;0.10057450883229313;-0.40618069146913705;-0.10706524796895511
A;9.6;-0.028696684848665832;-0.12089441418569091;-0.2739950531712072;-0.21627725174663492;-0.005989359442135633;-0.008155989015346421;0.15938741192702777;-0.014154246423601746;-0.5430128579922444;-0.25483904723982276;0.011494113077802126;0.7954442596333733;-0.4295345491854894;0.10786663504142124;-0.4270359302104705;-0.09778765986531823
A;9.7;-0.030968568165919308;-0.12961027855530372;-0.2888010707968025;-0.22496864683423112;-0.016304386120329806;-0.012595908124989563;0.15898770210160795;-0.013853618544383828;-0.5762521669206455;-0.2663327251652734;0.0064421635413043354;0.8370402443850367;-0.46459123480154485;0.11865380412790216;-0.4513061746607754;-0.08358187039826959
A;9.8;-0.03438349811181762;-0.13756428245842223;-0.30108988042877627;-0.23219920091422797;-0.024739988046219796;-0.016321711058629784;0.15515419174208261;-0.014693483632454818;-0.6101083063021093;-0.27751451818492123;-0.00012003375084645995;0.8764190154149496;-0.5007609588497246;0.13240801764668575;-0.4785071160325227;-0.06523419631156191
A;9.9;-0.0387723560851132;-0.14483043307662058;-0.31140588469277475;-0.2383219803851917;-0.031637525186233084;-0.01952022851775581;0.1485152986423025;-0.016467664252559633;-0.6453664411304869;-0.2902843842645142;-0.007902628642960652;0.9140106800316468;-0.5372066377242142;0.14850704919866775;-0.5077146389126241;-0.043608085942125285
A;10.0;-0.04390503853812078;-0.15150308533341938;-0.32038818362797183;-0.2437505084843936;-0.037421918035825286;-0.02241562477279402;0.1398502408248573;-0.018915682164537317;-0.6827342264478462;-0.3065577268003521;-0.016542472285997256;0.9507768888019581;-0.573029492311397;0.16619868675908123;-0.5378788827981253;-0.01975159794868464
A;10.1;-0.049603704685829975;-0.15756354408424667;-0.32788565391504587;-0.2484049249405622;-0.042108384991006;-0.024978020000441248;0.12935512066998284;-0.021951840145157497;-0.721075870013725;-0.3251788826776454;-0.02588592068418194;0.9872499670603676;-0.6084331560188625;0.1853408493752533;-0.5690745228991982;0.006070709150500342
A;10.2;-0.05575116901770638;-0.1629809010093739;-0.333682777951692;-0.25216146773009473;-0.04564440983677365;-0.027148491930213403;0.11709516869451114;-0.02553936410890767;-0.7590014815636081;-0.34442011320146904;-0.0358499499047209;1.0199371532651749;-0.6436554848941505;0.20590805450210858;-0.601467755745567;0.033765708474850165
A;10.3;-0.06205441312411697;-0.16775682043978435;-0.3376998214619302;-0.2549902838310487;-0.04815134352395978;-0.028936378272637064;0.10348462498234506;-0.029509167662807423;-0.7948368224634574;-0.3624902242926096;-0.046160022691058344;1.0478577285077124;-0.6789143136687725;0.22757796565969102;-0.6350299483120789;0.06279844295880466
A;10.4;-0.06822718803155947;-0.17188962490559856;-0.33981856946891664;-0.2568356787609902;-0.04972875613391059;-0.0303366900312505;0.08890227791165217;-0.033703361040499535;-0.82685942216842;-0.3774739936577842;-0.05655795937053787;1.0847659937406187;-0.7144953524817019;0.25006744888062693;-0.6697993276009484;0.0926872424617029
A;10.5;-0.07422289372160229;-0.17546715354280096;-0.3406785516514228;-0.2580976652748177;-0.05069210883981157;-0.03154833681682945;0.07385569246563212;-0.037975391041812134;-0.8552595392009303;-0.3898441468548932;-0.06686085445401324;1.1264785587299664;-0.7493224688085514;0.2728547660518519;-0.7047243772633482;0.12275791176702011
A;10.6;-0.08002601756899175;-0.1786127426035149;-0.34119923973656885;-0.2593494843259023;-0.051471709298992696;-0.03285474425621793;0.05898756139468175;-0.042147221633372034;-0.8806657594577194;-0.4006221901070557;-0.07685603891285653;1.112345821305842;-0.7818587312069143;0.29525502674473403;-0.7383391801105912;0.1521444814127637
A;10.7;-0.08566783715933735;-0.18138154168362863;-0.341770869177906;-0.2608267782296938;-0.05221758836991741;-0.034358671325762646;0.044526155090494124;-0.04616467954675163;-0.9036136004406687;-0.41057673616712664;-0.08648892586222567;1.1723970627520464;-0.8113940075022983;0.31701972995541183;-0.7700039053177488;0.1805463476212319
A;10.8;-0.0912093453966758;-0.18383907980556113;-0.3428587631173743;-0.2628088433795792;-0.05309901156531582;-0.0361822334896269;0.030702681639874496;-0.049978729442043957;-0.9247634440665271;-0.4205814645686363;-0.09572045961838982;1.1836712466312331;-0.837092095126656;0.3378885006122494;-0.7989798171237403;0.20766350860053961
A;10.9;-0.096498117161949;-0.1860767454345904;-0.3451104214580347;-0.2657122615689378;-0.05450045745965193;-0.03854432525873985;0.01819549770556439;-0.053374566760274966;-0.9436562557843837;-0.4300851312725458;-0.10425164899614137;1.199509287330636;-0.8579279646852811;0.35717641384419263;-0.8241692092874828;0.2325598364952839
A;11.0;-0.10134472890720492;-0.18815878904788885;-0.3489542521391975;-0.269819613903155;-0.05672438308486516;-0.04159806749197781;0.0075980839580282455;-0.05615329592747975;-0.9596042673553482;-0.43820863007960087;-0.11178978717676502;1.2139235451930577;-0.8732546298650776;0.3742997467700149;-0.8448012443086217;0.254404662388934
A;11.1;-0.10563326700862596;-0.1902190268892756;-0.3553130169630139;-0.27571172621093787;-0.0602710334863521;-0.045647000136863625;-0.0002944742923475241;-0.058075593780249735;-0.9721458725218195;-0.44435379457720936;-0.11802925422513133;1.2268093559943414;-0.8816460039347351;0.3884555582933773;-0.8594070377034608;0.27214752680701704
A;11.2;-0.10924267440730073;-0.1923748460966319;-0.36499706036350155;-0.2839012320920773;-0.06559039753526452;-0.050959553776428024;-0.00474989431775219;-0.05891839968924795;-0.9808465719897317;-0.44791222502732486;-0.12267706605688655;1.2338352544088558;-0.8818498890846458;0.39890043580609413;-0.8666807280780553;0.2848038100225452
A;11.3;-0.11216528786956825;-0.19457766862276316;-0.37754606289114356;-0.2940911707046947;-0.07245480559822637;-0.057364686842410695;-0.006031828812154139;-0.0587547442429357;-0.9860196306480455;-0.4491832112356309;-0.12581287749874503;1.2359941087272266;-0.8746064783666183;0.4059240493415386;-0.8673113733972144;0.29271653205753356
A;11.4;-0.11445498686954014;-0.1967524194258239;-0.3922572461107068;-0.3058218706309628;-0.08048798489103692;-0.06460158119914272;-0.0046603819380712785;-0.05774073803117252;-0.9881909999898735;-0.4487459208879221;-0.1276397236410376;1.235313963456527;-0.8610626930534204;0.4100905039417606;-0.862412827320826;0.2966100561776166
A;11.5;-0.11607154842418943;-0.19877270134276337;-0.40818243825444167;-0.31850580136119166;-0.08924586143978042;-0.07234960309919014;-0.0011518827363669604;-0.05601252559960024;-0.9878540497684298;-0.4469930397889148;-0.12827281622873032;1.2322159846813059;-0.8426621051525611;0.41191624704931096;-0.8533416248801355;0.2970605630933738
A;11.6;-0.11698963465550438;-0.20048953764242583;-0.42419358042404376;-0.3314405040627806;-0.09819000892047125;-0.08022605526312176;0.003837325377766876;-0.05374758170610372;-0.9855874616652862;-0.4443942257295608;-0.12787971662585296;1.2274264144008709;-0.821140723605903;0.4120640049029056;-0.8417427010320129;0.2948321853840383
A;11.7;-0.1172764040399521;-0.20192558824932672;-0.44022979867657597;-0.34455783556533337;-0.10725990230655125;-0.0881858238126112;0.010167811046238817;-0.051001542573856584;-0.9814904580876513;-0.4410378474789445;-0.12657774697589907;1.2212011945246175;-0.7967324933245825;0.4107315274033585;-0.8278275211579356;0.2902406527843784
A;11.8;-0.11698771838818889;-0.20312301997789195;-0.4563941139460246;-0.3578956360872123;-0.11648375984689263;-0.09624394107808865;0.01782429345795211;-0.04779423988538478;-0.9755778584808352;-0.4368930092138208;-0.12443725798028327;1.2135437789459473;-0.7694074677752054;0.40798039665913777;-0.8115448361981858;0.28342793390365273
A;11.9;-0.11622830799015382;-0.20408289923497946;-0.4724055408952985;-0.3712382511389247;-0.12567181420204632;-0.10426978176672641;0.0264611758009905;-0.04424427232175754;-0.9681031564508178;-0.43217395063694;-0.121667879613925;1.204930449728855;-0.739790599095266;0.40423551602912555;-0.7934994721870563;0.2750140891240198
A;12.0;-0.1151098889568507;-0.20481721226841554;-0.4880537021154874;-0.3844125589504852;-0.13466836568183194;-0.11215791265349528;0.03576522909153035;-0.040463246423463106;-0.9592913752559067;-0.42707405845750834;-0.11847721649884035;1.1957793838875328;-0.7084105843525066;0.39989136613540044;-0.7742019327883192;0.26559218953156094
A;12.1;-0.11355560818180965;-0.2051950492543746;-0.5024790075331653;-0.39690543257750477;-0.14310311878838844;-0.11963999408403003;0.04534406915624872;-0.036547520863044136;-0.9496569698560045;-0.4218432269062551;-0.11489637819102327;1.1865132901354425;-0.6765050096077365;0.39528258825278506;-0.7547929611689259;0.2554724942196387
A;12.2;-0.11143636473312579;-0.2050286087860247;-0.5145023903099668;-0.4080212007344226;-0.15047391428337642;-0.12635014650869225;0.0546930092883815;-0.032612748104593026;-0.9399042877351018;-0.41681695730475044;-0.11093288719387262;1.1777410971104798;-0.6457340115360051;0.3908219030808011;-0.7368084237052805;0.24499643708753105
A;12.3;-0.10868988866964635;-0.20425405039391453;-0.5237149296068528;-0.4175222342193594;-0.15663620677287104;-0.13217955801142578;0.06367741828933388;-0.028689915077234174;-0.9303023527155085;-0.412090583719936;-0.10656762501955708;1.1695318796026801;-0.616689907429131;0.3865989035198698;-0.7207504107638165;0.2342150226637898
A;12.4;-0.10523704287704927;-0.20279496104032368;-0.529660745956833;-0.4251487142104482;-0.16143343226486806;-0.13701097942495766;0.07216256447258285;-0.024806967106174582;-0.9211386985914896;-0.4077544655510579;-0.10176218770099732;1.1619142524633062;-0.5900076517485857;0.3826865561273425;-0.7071571494132112;0.22313957387053573
A;12.5;-0.10102450115431338;-0.20051488489526825;-0.5313147574276176;-0.43026859995323896;-0.16438818166426428;-0.14049272242173094;0.07959961054488529;-0.021103169654390408;-0.913177240443023;-0.4041945275263972;-0.0966206856766354;1.1558244001278863;-0.5672866444625457;0.37961558008455354;-0.6975238979544738;0.21233486513097333
A;12.6;-0.09604016655774839;-0.1973247278964596;-0.5278856513032588;-0.4323787568128372;-0.16511618540550188;-0.1423385805848767;0.08551174848640819;-0.017705915644941728;-0.9070925116850734;-0.4017648258516493;-0.09127533876659832;1.1522114107367152;-0.5498584745388033;0.37788410336776;-0.6930912143166665;0.20237942567680367
A;12.7;-0.09019890943548514;-0.19303142581405375;-0.5180801027155733;-0.4307001478132637;-0.16303059254761187;-0.1421268978804684;0.0892403520714311;-0.014779403521669954;-0.9037249628073631;-0.40087922195460735;-0.08581429608339963;1.1519048790695878;-0.5396279817145118;0.3780799473577958;-0.6956529304662489;0.1938570350768254
A;12.8;-0.08342740653894865;-0.18746781694451098;-0.5007337064072992;-0.4245262053846215;-0.15759908877243367;-0.13947079942236895;0.09018338180222635;-0.012473738817231128;-0.9038856844516001;-0.4019357567685091;-0.08032726086753628;1.1557413905763836;-0.5383527598104125;0.3807549817025828;-0.7068582724052384;0.18732626016738418
A;12.9;-0.07580113315690529;-0.18076723472578315;-0.47652052331862116;-0.4142407648166939;-0.14914911948606013;-0.13459644465389475;0.08863632929268078;-0.010730739114795051;-0.9073384259685691;-0.40480251692806135;-0.07483827456268988;1.1634878949445389;-0.545270965853387;0.3856946074770229;-0.7259018745050216;0.1826625755526523
A;13.0;-0.06742817874407869;-0.17312428851403627;-0.4465541617813482;-0.4004976040627657;-0.1382234884112168;-0.12789177285379205;0.08511911803336109;-0.009441326063784006;-0.9135140170139664;-0.4091820695360342;-0.06934060211738458;1.1743580079510134;-0.558960960263061;0.39246384563820547;-0.7513415501156402;0.1795250148881289
A;13.1;-0.05842456893955905;-0.16478013055883434;-0.41201879198941516;-0.38396308135653623;-0.1253603489087527;-0.11970976832661817;0.08016003787632847;-0.008486261915913174;-0.9221054387811449;-0.41490106177233255;-0.06386159886530574;1.1882231526999698;-0.5780989527030904;0.40071084415154257;-0.7818167815769979;0.17769064288647485
A;13.2;-0.048929238398280894;-0.1560189990895271;-0.374361545967;-0.3654592744651728;-0.11122004462576696;-0.11049092336585087;0.07441191525871976;-0.007717677243497034;-0.9326595763123029;-0.42170667099648096;-0.05842164384548676;1.2049533075457672;-0.6010045297191198;0.40997847640531004;-0.8156203964087467;0.17684556325531453
A;13.3;-0.03899589854038421;-0.14689015293709318;-0.33394475402530954;-0.34521296118206646;-0.09600636285546926;-0.10040219653516802;0.06802562889047536;-0.007117685828936571;-0.9448432326434402;-0.42944232659216963;-0.05302239978908441;1.2234844730759695;-0.6271636841903074;0.4200878661123997;-0.8522194536256116;0.17684670709002148
A;13.4;-0.028655393247427163;-0.1374034575198344;-0.2908866781828463;-0.3233061903850789;-0.07980537037714974;-0.08952416723447598;0.06103550204850661;-0.006693449441940169;-0.9584763051059335;-0.4380055971408918;-0.04766899856155615;1.2425389176849921;-0.6563993191267743;0.43095909977495905;-0.8914128354546431;0.17762997682134074
A;13.5;-0.01799599347703751;-0.12766525584810218;-0.24593665046633362;-0.3001997285889173;-0.06301154379161833;-0.07816744906290873;0.05377796230077003;-0.006386718716119066;-0.9729643271694517;-0.4470619614808866;-0.042351455745555544;1.2614517206277855;-0.6876462088212598;0.4422436993497225;-0.9321283759863359;0.17890825395091348
A;13.6;-0.007100615078899253;-0.11776553703948434;-0.19976941731188447;-0.27631357854528193;-0.04598463850250312;-0.0666210349431462;0.046552703048812594;-0.006148173377262367;-0.9877217347252385;-0.4563413961412448;-0.03705738990955587;1.2799813248174319;-0.7199174043213841;0.4536130176023119;-0.9733776112176056;0.1804028110779461
A;13.7;0.003952500534784242;-0.1079185877981379;-0.1533036657640121;-0.25214480882860624;-0.029110867510908633;-0.05510520949633246;0.03976401182870132;-0.005874114320282509;-1.0027938328231674;-0.46572426983045423;-0.03181374147745153;1.297583949560599;-0.7523496990291321;0.46485720446356593;-1.0142537870963633;0.18199558980153885
A;13.8;0.015069347012457435;-0.09840769179821063;-0.10771689325136702;-0.22832196129127436;-0.012875101840871928;-0.0438851088619141;0.03393395809329863;-0.005425504799784653;-1.0183290820671962;-0.4751596068397057;-0.026661058408775418;1.3138032210097284;-0.7838800607555712;0.47573597010978297;-1.0536357450346898;0.18357359252549976
A;13.9;0.026207500501807424;-0.08934054408712377;-0.06339519779622282;-0.20504220826909503;0.002583945480076011;-0.033021165503943184;0.029202750971338343;-0.004764152080806161;-1.0344936548104222;-0.48498547472214915;-0.021626012076280787;1.329686236010779;-0.8142541414308866;0.48621040160347784;-1.091244634176416;0.18513316954322523
A;14.0;0.03732828967098545;-0.0808321885099117;-0.020723890972648817;-0.18249626825692733;0.01713851968643576;-0.022557052633856323;0.02570939328906896;-0.0038481905185134835;-1.0515276459276652;-0.4953510358644748;-0.01673710968967468;1.347004196268704;-0.8432597284799392;0.49626137010727955;-1.1268426172706825;0.18668900374962583
A;14.1;0.048312731939016196;-0.07314697493265854;0.01902742974193483;-0.16139247506476728;0.03021571406688217;-0.01286113655456056;0.02401196084289625;-0.0025455370988305415;-1.06924295797059;-0.5063975000413965;-0.012033097970092888;1.3664037693102036;-0.8695513960369299;0.5055465698764205;-1.1590350201226371;0.18805310798259622
A;14.2;0.05904329860555091;-0.06650129132397531;0.05474110379770192;-0.14236698344636878;0.041292679838203394;-0.0042910146503025715;0.024590328555099072;-0.0007512293504228218;-1.087327862417382;-0.5181642161469702;-0.00754996857892265;1.38791321848465;-0.8918681413526368;0.5137349019190385;-1.186524282338068;0.18903715948418487
A;14.3;0.06940396506338598;-0.061211036985826084;0.08496626052929912;-0.12621865914479535;0.049741421554753806;0.002774102004912571;0.028099576933225956;0.0017030407510312262;-1.1057073339736627;-0.5291209131452925;-0.003317250939298688;1.4131545227712992;-0.9087344804212334;0.5204557801541556;-1.207786379819824;0.18942189503755724
A;14.4;0.07927976168477802;-0.057565470731987034;0.10835222865604521;-0.11369425318881099;0.05496968871549335;0.007968074103060552;0.035139833782843355;0.004968006324575613;-1.124273321673547;-0.5391878659167584;0.0006298584561517107;1.4438792272071992;-0.9187635251110748;0.5253646220863741;-1.2213874255769994;0.18901705544298597
A;14.5;0.08866491906899121;-0.055435025905336666;0.1254288023341017;-0.10451596871195701;0.05720696934538738;0.011404232977575202;0.04538830029079355;0.008945371405484792;-1.1429159149868617;-0.548401767292714;0.004276218505799179;1.4786727461281353;-0.9224727463689364;0.5286032596497527;-1.2278824005335611;0.18791176521888087
A;14.6;0.09759644997540029;-0.05458234547331653;0.13724415860624095;-0.09811835878636543;0.05692676186079337;0.013354490019448217;0.05827868491598842;0.013479070650741054;-1.1615998344481833;-0.5529370557337057;0.007625196943088497;1.5150823211822817;-0.9209377686575442;0.5304544236685609;-1.2284148761834288;0.18625669149388013
A;14.7;0.10606532144300829;-0.054777407613583406;0.14469908730831715;-0.09403140918670072;0.05447712765245338;0.013963685383602265;0.073279077718374;0.01839905835100253;-1.1800705185234124;-0.5589180422066349;0.010627528609328252;1.5522368263902848;-0.9150034212446352;0.5311604221591324;-1.2238583460587247;0.1842767240003793
A;14.8;0.11407778632435495;-0.05572992695662471;0.14896007715328352;-0.09164100054365587;0.05032247384271482;0.013443827890607274;0.08972688206477986;0.023500157553453693;-1.1980660970847907;-0.5790310204711089;0.013237546316905213;1.5890242185406551;-0.9057779565175306;0.5310305476843706;-1.2153641467550447;0.1822332160966802
A;14.9;0.12166506274965361;-0.05735602256101746;0.1504342561453651;-0.0907238179863672;0.04469031195210915;0.011954174794606143;0.10739930212863985;0.028737148253952016;-1.2156745509157236;-0.6003872468900688;0.015486662963284159;1.623329072743159;-0.8937350457360225;0.5301837083513803;-1.2034651851737408;0.18013297481314616
A;15.0;0.12884557369989036;-0.059627169742907604;0.14927881386887698;-0.09119200854960852;0.03769576950655562;0.009587430958251986;0.12619611461007751;0.03409867310810388;-1.2329929175375414;-0.6019835071689696;0.017399636464715096;1.6534744644326707;-0.879106157210348;0.5286816568351633;-1.1884352475636586;0.17796533833018024
A;15.1;0.13567780129686557;-0.06236663562094957;0.14632995714117492;-0.09258738362389529;0.029769326664965234;0.006630116803765684;0.14568773362915893;0.03948692972697243;-1.250125704066308;-0.5969813724251325;0.019024994471667167;1.6771324547703514;-0.8627893656772896;0.5267450950634465;-1.1712697681452386;0.17575908729791845
A;15.2;0.14222432329106294;-0.06541124058711034;0.14237096241546787;-0.09447912066953368;0.02132301328621189;0.0033633094316694034;0.16547700626441236;0.044816633268375705;-1.2672027118660951;-0.6057603285918858;0.020416278787140474;1.6920979895465207;-0.8456415600987199;0.5245834454458467;-1.1529216695493947;0.17353282279052173
A;15.3;0.1484442482763244;-0.0686000757137144;0.13794417496410638;-0.09659472331550045;0.012511914178373829;-0.0002063522944029117;0.18518921923869072;0.049953334203455046;-1.2839226836507125;-0.6207161118007996;0.021480470495045534;1.699323844656357;-0.8281566498032289;0.5223788347624048;-1.1338625507057944;0.17158022920332616
A;15.4;0.154269397312766;-0.07173176762701772;0.13369877932914687;-0.09861311743797607;0.0034950914219620266;-0.00410908253839537;0.20436383745139775;0.05472039693249364;-1.2998307900030301;-0.6301474842605157;0.02208361663461056;1.7007908941194705;-0.8108772744403829;0.5203422941756379;-1.1145954800357831;0.17028206173161564
A;15.5;0.15966758692002703;-0.07475158388229186;0.12973862480789133;-0.10049469632956498;-0.005742501773751574;-0.008412366178099262;0.22287388163198169;0.05906715124569528;-1.31473690992304;-0.6365425254488226;0.02215756219033982;1.6976284732802318;-0.7939077630569047;0.5185479577464447;-1.0951868631358153;0.169844989236414
A;15.6;0.16459718429279313;-0.07760973497977997;0.12612314386957912;-0.10222611911138468;-0.015250653939141934;-0.013215551782996382;0.24060682223043267;0.06294238923337869;-1.3284145393524902;-0.643309708913538;0.021619450310088162;1.6914012850896434;-0.7772996457327137;0.517063384260521;-1.0756363698596356;0.17050334876168005
A;15.7;0.16903010904780924;-0.08006055838836268;0.12378158910137849;-0.10332616718870558;-0.024675322440371517;-0.01838582111622289;0.2569972910683369;0.06615979520759496;-1.3405309614360137;-0.6493768835064473;0.020405432512184518;1.6834833633224884;-0.7618656878396948;0.5161310133649133;-1.056803850976097;0.1724853037766767
A;15.8;0.17296213528515825;-0.08187675152270213;0.1236152939562487;-0.10332281940106114;-0.03363412529650889;-0.023741193103694602;0.2715219408645575;0.06855965360373761;-1.3508575346269698;-0.6539126035826763;0.018493266119520513;1.6746929496571137;-0.7484120963197398;0.5159715265592371;-1.0395732997479055;0.17592291381334668
