Condicao;Tempo_s;Ch1_HbO;Ch1_HbR;Ch2_HbO;Ch2_HbR;Ch3_HbO;Ch3_HbR;Ch4_HbO;Ch4_HbR;Ch5_HbO;Ch5_HbR;Ch6_HbO;Ch6_HbR;Ch7_HbO;Ch7_HbR;Ch8_HbO;Ch8_HbR
A;-20.0;-0.2259807815599828;-0.24980036925515492;-0.22056226942723267;-0.23880457798706978;-0.4498153897172763;-0.36083409672259226;0.10893454771646072;0.027635819441107934;0.1167739615132879;0.07673575190153237;0.5856749526092235;0.47068446683055853;0.2486184960400042;0.13229427920405357;0.1598110053219255;-0.059228343118313376
A;-19.9;-0.22841750201568534;-0.25150669152862903;-0.2229828509852032;-0.2398750055589831;-0.4479784006614693;-0.35760837168699133;0.1076815257182524;0.028106495246265517;0.11354688704875393;0.07542795080431652;0.5636228863604087;0.4542108617607159;0.23679945187913365;0.1263514280911826;0.15503051842882964;-0.061938769187557696
A;-19.8;-0.23302959450059912;-0.25455820593809;-0.22828118420177912;-0.2424411293035007;-0.44718720411335244;-0.3550220053780331;0.11119173731969934;0.03212709638190869;0.10949068883218249;0.07390026952365414;0.542434345801988;0.437450770431;0.2241886609557806;0.12004368299172441;0.14985775219118036;-0.0649569529530023
A;-19.7;-0.240315250368198;-0.2593587009352083;-0.2371730524452067;-0.24692522285195118;-0.44777853416973823;-0.35334756197353556;0.12051126530923195;0.04033995255571643;0.1044397840591138;0.07211186921925439;0.5224353160617161;0.42184070742197477;0.21069949266960553;0.11327015287781528;0.1443139357624954;-0.06835585845013714
A;-19.6;-0.2507102900065643;-0.2662695469744989;-0.25029547023654786;-0.2537067362488479;-0.4500365904197867;-0.35282765353189305;0.1365293172585429;0.0532506078077315;0.0982526725690791;0.07002377216167233;0.5039715050781122;0.40748668396558996;0.1962775386480562;0.10594481930789268;0.13842196484340352;-0.07220330190570756
A;-19.5;-0.2639571357021948;-0.2750630012588786;-0.26728529846088644;-0.26255228845225353;-0.4538153665055189;-0.35335127632437313;0.15880831946131968;0.07064315656595266;0.09105195174765068;0.06767819136160291;0.48704774686155083;0.3944205005448125;0.18105148805979354;0.09817222070428588;0.132153589918782;-0.07645343462368226
A;-19.4;-0.27965588242527506;-0.28537311424007505;-0.2875538087106948;-0.27308068672305374;-0.4589114232936353;-0.3547334829051181;0.18667335982012379;0.09225723906797523;0.08300873336393;0.06514218082382595;0.4714847312099768;0.38622948784585054;0.16515095805663016;0.09009666251586967;0.12546431551355575;-0.08102405863035766
A;-19.3;-0.2972924203427656;-0.2968045396201875;-0.3104213989778808;-0.2848918173397319;-0.4649414767778106;-0.35673450815742225;0.21903167662460854;0.1172731457508176;0.07434436907024988;0.062459749681258;0.4574110579028847;0.37737891414728386;0.148848015348503;0.08188035404238203;0.11833488879507303;-0.0858547340952347
A;-19.2;-0.31625141520176125;-0.30887760237514783;-0.3350638751396424;-0.29749770380502394;-0.47145972510677225;-0.35906443374357266;0.25457066423365626;0.14473366136524124;0.06531899384512752;0.05968651910817613;0.4449099473241902;0.35625092613838394;0.13244329431036928;0.07371307493491663;0.11073987144678377;-0.09086878359205386
A;-19.1;-0.33645357969531986;-0.32146919923495965;-0.36131917353201626;-0.3107613070996367;-0.47852928009218854;-0.3617066442734682;0.2933146190645015;0.17493614383989442;0.0559698846219332;0.056867476918265325;0.43374194505299046;0.3347492228411131;0.11591269714238894;0.06565244590846575;0.10265153113139824;-0.09600923536794959
A;-19.0;-0.3579057033796129;-0.3345350555627311;-0.3891535946641058;-0.3246272670013637;-0.48626068704460845;-0.36468747356210596;0.3354236483024571;0.20822855939466933;0.04629649509784439;0.054032667555804714;0.4237116914242032;0.332298391070998;0.0992075848557068;0.057727147403796586;0.09405506072922254;-0.10123319200352432
A;-18.9;-0.3803996957340461;-0.3478303970806724;-0.41820575163192863;-0.3388296853479176;-0.4946600532352914;-0.36792708163597787;0.3806057887901835;0.24472855515258463;0.03638926137206422;0.05125228404012816;0.4144605543574773;0.33662469292378727;0.08232403028006097;0.05003542906572367;0.08490481229293234;-0.1064576726148938
A;-18.8;-0.4037596732824946;-0.3611348274371311;-0.4481559488270568;-0.3531264010561568;-0.5037635204362001;-0.37136270111965697;0.42862895244146815;0.28460598716274177;0.026322192050241888;0.04859360522651013;0.40560688914958787;0.328742858525648;0.0652362210171269;0.04266479466573525;0.07515884854723964;-0.11160003077586556
A;-18.7;-0.4275132578040113;-0.37414029814971705;-0.4784318225673818;-0.3672112780351018;-0.5131416230757626;-0.37477136211369544;0.47819036497407863;0.3266387338659644;0.016282742893546143;0.0460606875206544;0.39745328837385285;0.31588387700397114;0.04824276068493116;0.03573693766750985;0.06484219957145854;-0.11662462238823856
A;-18.6;-0.4510318967431468;-0.38645396088219996;-0.5082876996485659;-0.3806986946244928;-0.5221836557817623;-0.3778491333544691;0.5274539328099026;0.36901361645635644;0.006524994652785665;0.04365051576363399;0.3904926859586113;0.3091656165814207;0.03176645886702367;0.029406538525814874;0.05399012789582258;-0.12150262450647142
A;-18.5;-0.47406669424553094;-0.39793829388147817;-0.5374482855545528;-0.393453151952909;-0.5306501868468274;-0.3804906842559639;0.5756470288582127;0.4109605640214844;-0.002864577924611922;0.04134831263360539;0.3849582031443033;0.3063833444891162;0.015986241241048305;0.023730271743710674;0.04264437258099196;-0.1262111348015389
A;-18.4;-0.4963465882483611;-0.40845579134334287;-0.5656248227625724;-0.40534144839791697;-0.538258275303833;-0.3825779111203387;0.6218960484680895;0.45156790591169793;-0.01179377391839509;0.03913008151853248;0.3811489263115644;0.30449948776651903;0.0011082443013945564;0.018762905272750707;0.03085717176994951;-0.1307328631647855
A;-18.3;-0.5173000865666895;-0.4175914069737061;-0.5920791643470471;-0.41594415771582494;-0.5445534971168424;-0.3838444397397165;0.6644152949058362;0.4892098551138493;-0.020014247122237983;0.03703704827734988;0.37927372320252806;0.30467429265388457;-0.012543371357328859;0.014671781968123021;0.018620650913391934;-0.13501722674686611
A;-18.2;-0.5364645605669267;-0.4249810748231875;-0.6161852645464219;-0.4248875254272786;-0.5492253302740417;-0.38408429163296454;0.7017018940024609;0.5225920965245785;-0.027318595207797003;0.03512386582739069;0.3793790681712057;0.30777252488385587;-0.02473656104013333;0.011606729251174563;0.005912512133416037;-0.1390067060934923
A;-18.1;-0.5531363316428548;-0.43015204469462187;-0.6370673651086332;-0.4316987800074248;-0.5516455105071953;-0.3829551727649436;0.7316420992033055;0.5497131987616029;-0.03341857974868656;0.03341085332614835;0.3818255282394243;0.31375078951769764;-0.035054206284834244;0.009745376622033675;-0.00724863747344795;-0.14265594515683233
A;-18.0;-0.566674166854094;-0.4326653541916272;-0.65391910514212;-0.43593727117909076;-0.5512591846053212;-0.3801498017736735;0.7522336732721713;0.5686821697732753;-0.038045252320284995;0.03192528368543446;0.3869168298869341;0.3225605776913669;-0.043119176590103336;0.00925590543999899;-0.020852484325551757;-0.1459210657970491
A;-17.9;-0.5773439877769864;-0.4326847906956246;-0.6670540386388355;-0.4377528341628798;-0.5484137817999306;-0.37584182676998346;0.7640301155859044;0.5801329575099143;-0.04132366433535317;0.03067332250828514;0.3943366553951373;0.33400450682911753;-0.049133149977633295;0.010082101921437214;-0.03488156802263909;-0.1487699326344396
A;-17.8;-0.5856302064206194;-0.43054054565640865;-0.6770732094236038;-0.43746046651313986;-0.5436422551249089;-0.3703146252284597;0.7683006535654879;0.585382567424428;-0.04348882633858242;0.029637393178357563;0.4036554082152284;0.34778706313741914;-0.05343496889293764;0.01209597029587517;-0.049295827848326645;-0.1511769891170207
A;-17.7;-0.5920506474980272;-0.42652126352799336;-0.6845627241974741;-0.43532856919015117;-0.5375988978844806;-0.36388550504133477;0.7660207808733457;0.5854869803107556;-0.044731315557029916;0.028862246879395315;0.41433644185269314;0.36352256112885817;-0.05637847899340276;0.015215885479161528;-0.06412545577889084;-0.15311728420237536
A;-17.6;-0.5972520156499934;-0.42100156996531;-0.6902672650194432;-0.43170954422705066;-0.5310668260278204;-0.35693999118124253;0.7585131221128862;0.5818432500639479;-0.04529804234799695;0.0283897883262183;0.42574963853870385;0.38075947901363216;-0.05840168642595511;0.019327358278872886;-0.0793993584321031;-0.1545677755291912
A;-17.5;-0.6013505585648122;-0.414110564115596;-0.6943658174861369;-0.4267246174883246;-0.5241463013553052;-0.3495496298855221;0.7462715867365035;0.5749629224984432;-0.04529756637470417;0.028172375264929883;0.4377620298965246;0.3992787161068474;-0.059614821333625834;0.02435113355649321;-0.09503594437679919;-0.15550628404423872
A;-17.4;-0.604344881130972;-0.4059000712798744;-0.6968918241574533;-0.420419813879751;-0.5168146296716616;-0.34172178136729237;0.7294441234308948;0.564997289406044;-0.04478197402562589;0.02816713407669269;0.45033533547001436;0.41891530122090703;-0.0600467080037852;0.03023689992531242;-0.11095726547254703;-0.15591457169967704
A;-17.3;-0.6065376197370176;-0.39663521190231243;-0.6982643463306619;-0.4130499481947494;-0.5093494269410499;-0.3336265814082191;0.709040340036927;0.5529647120149659;-0.04395609919707333;0.028309907783725663;0.463203840369121;0.43932698910420953;-0.059935933258993046;0.036848318460390495;-0.12706538740633455;-0.15576948208400054
A;-17.2;-0.6081967554108498;-0.38656621041570194;-0.6988652436780027;-0.4048560471654614;-0.5019788546382955;-0.32541155896332974;0.6860249729000492;0.5398261068267018;-0.04301380345547301;0.028531017513648393;0.4761386718362419;0.46019729250354713;-0.05949799507951692;0.044049651409313384;-0.14325574015593823;-0.15505114304720902
A;-17.1;-0.6097200303206733;-0.3758808536165015;-0.699109764020184;-0.39600782896002595;-0.4952495018613172;-0.3173310429234686;0.6607523606351164;0.5259467814868071;-0.042046170799763694;0.028912548563063467;0.48871871895122254;0.481222823260818;-0.058978196247425174;0.05181182295387199;-0.1596002525204101;-0.15375703325968182
A;-17.0;-0.6116308999563298;-0.3648032520205513;-0.6995288190381395;-0.386706758222104;-0.4899026029366027;-0.30972178602280387;0.6335594302974261;0.5116879976182518;-0.04115460533736304;0.02958106894699064;0.5003852677375438;0.5020386432827051;-0.05869334754489941;0.06011896559472696;-0.1762233675738507;-0.15188552218677565
A;-16.9;-0.6140734739511471;-0.35338743204738066;-0.7002491601152929;-0.37699472089261654;-0.4861673294485618;-0.30268428197388886;0.6044074494003344;0.49699199583549714;-0.040342487792342396;0.03059410858422673;0.5109390741672675;0.5225133300977851;-0.05872729776536989;0.0689687557875267;-0.19316574009289056;-0.14944291867407866
A;-16.8;-0.6171949709928324;-0.34167663212269517;-0.7013896249249187;-0.3669025123414631;-0.48428900407960196;-0.2963225410803654;0.5731821330328422;0.48171723763034;-0.03959708845377019;0.032024317102075095;0.5201771702906037;0.5425273545501246;-0.059157844317450525;0.07837034690683886;-0.2104860652224998;-0.14644067947647077
A;-16.7;-0.621549791766796;-0.3299748333206658;-0.7035703319203286;-0.3567124093462146;-0.4849863073307583;-0.2909824663793401;0.5405268993057932;0.4665437903940042;-0.03911023781972123;0.033932991056136785;0.5275124010435372;0.5616089233819697;-0.06036315720743701;0.08824479611964176;-0.22823274705749963;-0.14286001220922007
A;-16.6;-0.6276147874207991;-0.318574481852818;-0.7073484779253674;-0.34669781440952185;-0.4888501461476702;-0.2869575433293212;0.507126769814255;0.4521917864513276;-0.03908387322487794;0.0363416060817876;0.5324283176303215;0.5793053484095214;-0.06269018690490835;0.09849331644982584;-0.2464069771449413;-0.13867720357795932
A;-16.5;-0.636047136159319;-0.30781045996171486;-0.7134381493682538;-0.3371705762023085;-0.49673604756401346;-0.28465363118094444;0.47369190389110605;0.4393746644578691;-0.039699909503372766;0.03935438891335963;0.5342821864546461;0.5951319647188065;-0.06655163996646518;0.1090496401488199;-0.2651113008051649;-0.13389220118022216
A;-16.4;-0.64745142931476;-0.2979995732267149;-0.722502482204419;-0.328425522167171;-0.5094308496615474;-0.2844454412165458;0.44087506595321546;0.4287570143842583;-0.04113976005512843;0.043058204865330296;0.5324617297229315;0.6086175726524434;-0.07234006543166238;0.11984376060004553;-0.28442713388389507;-0.12849967327318002
A;-16.3;-0.6615256407269587;-0.28905036146691643;-0.7342369580975685;-0.3203728240307191;-0.5265047156465226;-0.28614312174279455;0.4084874548017745;0.42009180612200225;-0.043360375507742965;0.04737082010933236;0.5271779886791084;0.6198465791347014;-0.07990616439571863;0.13083469921780555;-0.3042293749098448;-0.12250420563435549
A;-16.2;-0.6777309325182896;-0.28075491249556084;-0.7480743969513091;-0.31281380527419866;-0.5472041070489908;-0.28940523063146806;0.37613789489646887;0.4128776542243391;-0.046233295323407475;0.052182314459395585;0.5188963843044552;0.6290929705903117;-0.08893555858295343;0.1420001448901802;-0.32436089515593736;-0.11592918884118886
A;-16.1;-0.6955589250971208;-0.27294920596430394;-0.7635115869115836;-0.3055887184712631;-0.5708480971957774;-0.2939268632611203;0.3433504560517706;0.40664845362020996;-0.04972621576066949;0.057338100236139056;0.5079123234728664;0.6364667405845541;-0.09921459197166449;0.15328564268660738;-0.34460642370559924;-0.10874443805691225
A;-16.0;-0.7143744071985019;-0.26541389015343597;-0.7799112099063752;-0.29848608528250153;-0.5965822653692818;-0.2993231390602036;0.3095402874953841;0.40081589098235515;-0.05377638869052337;0.06265856632493705;0.49463957071294207;0.6421564673000533;-0.11045378134266404;0.164639228847844;-0.3647208217449762;-0.10092231650403871
A;-15.9;-0.733981269486347;-0.2580845602397073;-0.7970591370648474;-0.29144647624909403;-0.6240837178207235;-0.305453331318815;0.2747536665065171;0.3952575547994055;-0.05828842007462498;0.06812543549825989;0.4793383893665766;0.6463295342961999;-0.12249090419491271;0.17604404461392775;-0.3846656994122011;-0.09252212709298213
A;-15.8;-0.754304033664603;-0.25095026072441495;-0.8148700266953366;-0.28446093445930387;-0.6531982209555123;-0.312254338256464;0.23912374870745934;0.38995393792711486;-0.0631984185717025;0.07374390826322763;0.46215216937516024;0.6490782231495955;-0.13523898898455222;0.18748184576375504;-0.40443222251917454;-0.08360040520555101
A;-15.7;-0.7749494126694376;-0.24385591458528655;-0.8329154113684512;-0.27738566038428214;-0.6833212229990524;-0.3194553271311049;0.20255186116670343;0.38458855008282855;-0.06834720031586805;0.0794643100781327;0.4435552352575822;0.650717355782696;-0.14840182339249797;0.19894250317062667;-0.4239452896410061;-0.07423119002731848
A;-15.6;-0.7955562490320176;-0.23665866709069494;-0.8507990536673313;-0.27008926567308755;-0.713888160109037;-0.3268041133740933;0.1649854223459135;0.3788805050722943;-0.073574603715441;0.08524829252655408;0.42401107630069834;0.6515618454510941;-0.161693402571494;0.21041899095793148;-0.44314542193197504;-0.06449497652086134
A;-15.5;-0.8157723398449832;-0.22927095824774746;-0.8681953260087738;-0.2624831591476049;-0.7444726473565426;-0.3341113101846922;0.12590881286612143;0.3724141551759179;-0.0789293477207007;0.0909551450191417;0.40357865968509365;0.6515590358619012;-0.17504174762444968;0.22185098247700008;-0.461836558122223;-0.05433084613906791
A;-15.4;-0.8351606018169777;-0.22158480659985802;-0.8847074319693551;-0.2544566018866181;-0.77456490039794;-0.3411490112563511;0.08459045869317494;0.3646444756090168;-0.08450394007218076;0.0963929772279064;0.3822756276768038;0.6505926227118071;-0.1883881728428216;0.23315987452738085;-0.47975622485887826;-0.0436359313461292
A;-15.3;-0.8536094941492802;-0.21361163260975236;-0.9002577216413918;-0.24601817909015633;-0.8040429408740577;-0.3478703507605214;0.04084849162564108;0.35544686119039604;-0.09036459705187294;0.10148981288684755;0.360032793976679;0.6485547679724757;-0.20176019187584515;0.24429517261039813;-0.49679918663512446;-0.032378320741620836
A;-15.2;-0.8710200063829854;-0.20537261502424986;-0.9147877784776712;-0.23718509294819334;-0.8328162071905423;-0.35424278156737543;-0.005538118734639941;0.34469179691266394;-0.09660010460068591;0.10616700945702995;0.3367328106467178;0.645299070930311;-0.21521258770665685;0.2552029701438565;-0.5128520248609414;-0.020512578119288083
A;-15.1;-0.8868665437811671;-0.1967047664180921;-0.9277840145608964;-0.22779931668655262;-0.8601806068717446;-0.35995089786234313;-0.05516171105921863;0.3318085518744285;-0.1031986789170567;0.11025010298721494;0.3126542084086874;0.6409087211595752;-0.22854548002789876;0.2658179392459985;-0.5276793364496948;-0.00799842547073304
A;-15.0;-0.9006686295753976;-0.18745430350530157;-0.9387669377421437;-0.2177148397509585;-0.8854525672699589;-0.3646903765444218;-0.10842471097804918;0.3163260635608114;-0.11010516400874781;0.11359866075163083;0.28815039022431366;0.6355409838423665;-0.24152821593309337;0.27608557551356405;-0.5410918737997479;0.005164945229367834
A;-14.9;-0.9118401481828009;-0.17743863129433368;-0.9471725888339844;-0.20675260956120045;-0.9078998343297977;-0.36813035374901215;-0.16615306176937583;0.2975436981713644;-0.11734860599753905;0.11600409263647826;0.263436493151203;0.6292232100566153;-0.2539846217656603;0.2859382011541616;-0.5528114538489959;0.01905952151989343
A;-14.8;-0.9198336501908795;-0.16648921814882733;-0.9524730381264837;-0.19474852861873604;-0.9268182017779418;-0.3699544153911507;-0.22905775502255077;0.27483184135022753;-0.12494410265749423;0.11727406639959614;0.23875008948725762;0.6220045105374772;-0.265734841746581;0.2953096870463554;-0.5625820604926952;0.03374921489918137
A;-14.7;-0.9248807832437977;-0.15472929149388914;-0.9549076455419954;-0.1818305437726515;-0.942413366749931;-0.37027367728098604;-0.29645860567797255;0.2486250506245291;-0.13284266679704704;0.11749894955499762;0.21414128046046566;0.6139595466115799;-0.2767987348176497;0.30419400342775393;-0.5705183851750322;0.04912279747297488
A;-14.6;-0.9274346856855358;-0.14236481982484595;-0.9549388521642168;-0.16820831292280314;-0.955184970270083;-0.3693350690957331;-0.3673763650737212;0.21962309883342268;-0.14100025211513678;0.11684385663354302;0.189549717161964;0.6051350035944214;-0.2872799471111751;0.3126071051593238;-0.5768339459567651;0.06503942322147394
A;-14.5;-0.927868017040602;-0.12957208167952494;-0.9529352159757307;-0.15406577634752772;-0.96541881825378;-0.36729337396499506;-0.4406607135245979;0.18853946260137455;-0.14930811494914575;0.11545796580683998;0.16513116651868742;0.5956917089478639;-0.2971736406005929;0.32054137994136855;-0.5817214592655349;0.08131383728864527
A;-14.4;-0.9266628535441273;-0.11656723133288516;-0.9493724390255611;-0.13962715606814147;-0.9735276280151188;-0.36436298270383904;-0.5149634810900747;0.15623738859865277;-0.15764643096491593;0.11353112922512576;0.14102030936990984;0.5857993112544304;-0.30650069422633397;0.32799897720014126;-0.5854277830948629;0.09773494909618385
A;-14.3;-0.9240115249732588;-0.10345120948541453;-0.9444616959968553;-0.12499591667024479;-0.97977968110738;-0.3606767385945142;-0.5899598323614721;0.1229839755643436;-0.1660277008798845;0.11113054449093696;0.11712660865495206;0.5754520851020808;-0.31534108253241655;0.3349948547731243;-0.5880417313024004;0.11425599663388963
A;-14.2;-0.9200028252302994;-0.0902856054812009;-0.9383121649234463;-0.11023617664079577;-0.9843196327249268;-0.35630965871230913;-0.6655084163979592;0.08890550853423829;-0.17447359731937606;0.10828417420317127;0.09338970723978646;0.5646420370498104;-0.3237474094069981;0.3415353618071988;-0.5896013952524859;0.1308545275574362
A;-14.1;-0.9150113133810001;-0.0772377122123169;-0.9313160847577819;-0.09551798132338618;-0.9876495059932031;-0.35150261280506;-0.7410159963635983;0.05449308166088773;-0.18299073784786746;0.10512482104001108;0.06964420675425576;0.5533551084174473;-0.3318590203028533;0.3476550176750859;-0.5902833691967482;0.1474513866968321
A;-14.0;-0.9093897181445687;-0.0644644567582997;-0.9238447876242795;-0.08100079084953293;-0.990258605291646;-0.34648941041039727;-0.8159636295142536;0.020193349431322893;-0.1915936419367128;0.10177665575457429;0.0457149366599805;0.5415694942981482;-0.33981698144469874;0.3533904435447859;-0.590253816317853;0.16397926852003764
A;-13.9;-0.9033579683534327;-0.052083356397660374;-0.9161111372369719;-0.0668115003175993;-0.9921936407432534;-0.34131690025186945;-0.8893479463615637;-0.013439919768323705;-0.20016306997107147;0.09832908328456913;0.02188990248068201;0.5294853442483927;-0.3475412680634653;0.35871062050739155;-0.5896306409948711;0.18026826952188157
A;-13.8;-0.8971719173030959;-0.040228587861909304;-0.9083544550483396;-0.05309628626023688;-0.9934530090926659;-0.3360155272733838;-0.9598762084384793;-0.045715598637041666;-0.20852972399384662;0.09488986535493193;-0.0014189424775876702;0.5173751725407323;-0.3549019384341081;0.36356978359390535;-0.5885555427046159;0.19609684719699327
A;-13.7;-0.890867666250375;-0.028939550339212694;-0.9006090213795268;-0.039902510198734475;-0.9939298266040035;-0.3305548372806406;-1.0270306648589607;-0.07639520452543103;-0.2166158926010313;0.0914811340846482;-0.02395109446633592;0.5054017120987293;-0.361805229796051;0.3679407308764979;-0.5870604980338294;0.21136670278846603
A;-13.6;-0.8844591004255395;-0.018246546946695474;-0.8928838387169931;-0.02726907240007126;-0.993465581330109;-0.3248818511938749;-1.0902727897266282;-0.1052475071849468;-0.2243322801894161;0.08811780280715897;-0.04539989597709759;0.4937480343479379;-0.3681340511550326;0.3717901368633214;-0.5851681993229736;0.22597377433053412
A;-13.5;-0.8783345482233376;-0.008325658417784432;-0.8855573184289369;-0.015382788589070273;-0.9923293965254372;-0.31914440728103877;-1.1483735249804647;-0.13152762536791496;-0.2315499092534994;0.08495437077991141;-0.06556137003884288;0.4826052626314965;-0.37386413732621726;0.37510946206818385;-0.5830852807578157;0.2397152055718048
A;-13.4;-0.8728769510559538;0.0006549676865379439;-0.8790080786457208;-0.004421138311021977;-0.9908610587007027;-0.3135172698732793;-1.2003080374158275;-0.15457800314010317;-0.23817477716884028;0.08214250477314966;-0.08433957788658786;0.47211188069500576;-0.3790163822910335;0.3779083074747387;-0.5810164108514586;0.25242330327605433
A;-13.3;-0.868493060038614;0.008512675534234404;-0.8736239805845889;0.005421281120746357;-0.9892786581881579;-0.30812979074032487;-1.2446455075612786;-0.17356279393057683;-0.24404250451802323;0.07984231097100913;-0.10142555571470169;0.4625091739624696;-0.3835244547394554;0.38016376563746945;-0.5791748186920245;0.26386349868115966
A;-13.2;-0.8655715341077546;0.015075662739675089;-0.8697762635710893;0.013961052050507128;-0.9878141346479099;-0.30311463928229365;-1.2800770118901843;-0.1877101214466963;-0.24900285642586795;0.078208558872217;-0.1165550094047707;0.45401635484162295;-0.3873364436613036;0.3818612229174887;-0.5777678263919297;0.2738190014475492
A;-13.1;-0.8639727900478729;0.020400446911489567;-0.8673423256235155;0.02125231247711934;-0.9864440268041479;-0.2984564473307465;-1.3071363256729729;-0.19732694890374436;-0.2531180937852877;0.07719704099141378;-0.12981759630804746;0.44660476718135955;-0.39048174361122623;0.3830340477550438;-0.5767478075810626;0.28236229659483447
A;-13.0;-0.8633912067682221;0.024615524922441345;-0.866039631562395;0.027423909832873683;-0.9850261800045201;-0.29407859543864756;-1.3268480622893177;-0.20302423041895423;-0.2565011856814401;0.07669841872082106;-0.1413553636248679;0.44019088540117224;-0.3929910157398462;0.3837210968019651;-0.575982486436561;0.28964460092108757
A;-12.9;-0.8636277342807492;0.027811298264982298;-0.8656938228159659;0.032564848738190655;-0.9836050867378612;-0.2899853398177523;-1.3401949370447364;-0.2053398959069348;-0.2592687715290456;0.07665346059904987;-0.15144413523842104;0.4346575768648173;-0.39495507615553116;0.38398768513522974;-0.5754081440747063;0.2958011379220693
A;-12.8;-0.8644108796508272;0.030111103334368394;-0.8660624923659306;0.03679841462757949;-0.9821941763540414;-0.2861617262948215;-1.3484268302928761;-0.20496616452349858;-0.26156825264175243;0.07697558921634862;-0.16041483338805307;0.4298503104363971;-0.3964785353232907;0.38390715287200905;-0.5749264367076901;0.30100945562289017
A;-12.7;-0.8655869565133383;0.03158424912763813;-0.8669945735177498;0.04019215273147392;-0.9806759849812261;-0.2825550465813631;-1.3519445221683926;-0.20217146106437767;-0.2634309590296118;0.07760483755490899;-0.1682297105194217;0.42577776901208875;-0.3975352456887222;0.38349167683288865;-0.5744660257497483;0.3053291156567757
A;-12.6;-0.8670732674580588;0.032272411681825375;-0.8684029725616949;0.042784649303790445;-0.9789730620832762;-0.27913439028301834;-1.3509224150211452;-0.19709307147424315;-0.2648585032474795;0.07850833637058852;-0.17481348223634408;0.42247538173119015;-0.39808877198263737;0.3827487799071285;-0.5739902749091712;0.30878256442870944
A;-12.5;-0.8685867139885497;0.03230056837642081;-0.8700154942253322;0.04470145182059149;-0.9768774428657112;-0.27579827641612464;-1.3461547688511661;-0.1902328255462713;-0.26592858779497686;0.07957582074386949;-0.18017919112033898;0.41990771658869797;-0.3981230836626839;0.3816964977157298;-0.573364325216855;0.3114948694220083
A;-12.4;-0.8698548056649029;0.03179141882967684;-0.8715671476008238;0.04606579600984961;-0.9741808874250006;-0.2724461257545272;-1.3383924961757376;-0.18207136854047068;-0.2667112442663262;0.08069942722526058;-0.18432410065220228;0.4180441333362621;-0.39761555347977584;0.3803501974274921;-0.572455746088937;0.31358521637601244
A;-12.3;-0.8708057018788429;0.03079600012743633;-0.872996043285613;0.046924537383107534;-0.9710563959831271;-0.2691407105815218;-1.3283737206003678;-0.17299124755734496;-0.26728244034017035;0.08187432425848495;-0.18755346545445173;0.4167725002384537;-0.3966677718685485;0.3787838027099424;-0.571272959058513;0.3151396735731873
A;-12.2;-0.8713792274508254;0.029363091843071842;-0.874258835774155;0.04732166820391459;-0.967761604792071;-0.2659764439444423;-1.316987522155352;-0.16343131398720434;-0.2677417357581451;0.08310910513767045;-0.19029284583975326;0.4159397218029386;-0.3954288404297097;0.3770926752211574;-0.569845635664926;0.3162602795857681
A;-12.1;-0.8716075324658235;0.02750572067799073;-0.8753806162557707;0.04726511956576829;-0.9644974947626883;-0.26303845346059873;-1.3045713290259195;-0.15355809722009095;-0.2681102954023995;0.08442982775860575;-0.1927342152761371;0.41548363371045127;-0.3939619958336982;0.37533247891348154;-0.5682177149333816;0.3169755871197304
A;-12.0;-0.8715491425578703;0.025228628160417266;-0.8764113943528429;0.046754101719015395;-0.961505810327222;-0.26042911237971555;-1.2914479542933677;-0.14352053025128164;-0.2684071338360541;0.08587461010989195;-0.19510221136776984;0.4153309526149398;-0.39234271392947306;0.37356375274516207;-0.5664494722394675;0.31730864329193853
A;-11.9;-0.8710155190417197;0.022627701730638883;-0.8771878860003817;0.04588267688737169;-0.9588469425379662;-0.25815132118381534;-1.2786408887504033;-0.13385991628463412;-0.2687542944642889;0.08739292668115173;-0.19771725031219267;0.4153512878486154;-0.3906843069334709;0.37185959804131485;-0.5644947953460289;0.31740123889987437
A;-11.8;-0.8697945873107917;0.019806887908781157;-0.877520815000425;0.044754011421815676;-0.9565014597079076;-0.2561752398769963;-1.2670949251491548;-0.12509146502884771;-0.2692642890985715;0.08891721072963232;-0.20080850943278294;0.4154430435253538;-0.3890679009643483;0.37027635497776235;-0.5622834653036621;0.31739293197848273
A;-11.7;-0.867716327876412;0.01686131577851402;-0.8772643414311556;0.04346100399101527;-0.9546095051900201;-0.2545330998826163;-1.257972708752475;-0.11781554162025376;-0.27007206187774546;0.09041044486209682;-0.20482528129603494;0.41541755350308707;-0.3876465739800308;0.3689035398796987;-0.5597892001740963;0.3174357751741268
A;-11.6;-0.8646132544807674;0.013883052667491569;-0.8762751747614619;0.042093917102381084;-0.9532773926834848;-0.25324318928740297;-1.2523510663622401;-0.11258673607190328;-0.27130587541295004;0.09183257387244748;-0.21016863152632892;0.41510502590202325;-0.38656052737102264;0.3678209133417454;-0.5569816803101553;0.31767450404408937
A;-11.5;-0.8605395285121018;0.01087677357740624;-0.8745772909466911;0.04065513705441859;-0.9524923704696837;-0.25231102175402587;-1.2499951958695634;-0.10930932358358536;-0.27291258283079234;0.09318461676492795;-0.21667582562414633;0.41455863894117995;-0.38574817573962683;0.36701640243340705;-0.5538624436087307;0.31808329962148507
A;-11.4;-0.8556355960350048;0.007817470960915784;-0.8722607091195416;0.039116924589931656;-0.9522531904104357;-0.25175687182616624;-1.2503243143457263;-0.10771229009487016;-0.274784907031159;0.09448998741223225;-0.224083134948609;0.4138642401106676;-0.3851046392418196;0.3664571773734995;-0.5504560361380264;0.3185845678686068
A;-11.3;-0.8499556304503626;0.004695906569550878;-0.8693552985061537;0.037469240769458345;-0.9523939096928169;-0.2515233309758349;-1.2527415090764746;-0.10750466729056729;-0.27684667310753586;0.09573515364748708;-0.23200964940590074;0.4131709678151605;-0.3845139069550436;0.3660912703020509;-0.546745741047137;0.31912239285062594
A;-11.2;-0.8435827756524956;0.0014918494410594008;-0.8659122533249102;0.03569112610779257;-0.9527279315511601;-0.25154911661016044;-1.2564679714860194;-0.10830565304158579;-0.27899672728718805;0.09691110528980573;-0.23999427913239657;0.4126581579912254;-0.3838315404187487;0.3658530021190316;-0.5427175419306538;0.31961824566314023
A;-11.1;-0.8366227862068643;-0.0017971555501201664;-0.8619943136723922;0.03377771023030629;-0.9533531394879189;-0.25187918176729873;-1.2614091572617596;-0.11007826693364287;-0.28118276793568686;0.0980430279292106;-0.2480823783986863;0.41226300999960586;-0.3830461289321594;0.36574267538820493;-0.5384061462130507;0.3200452384407253
A;-11.0;-0.829155783718142;-0.00516613332224658;-0.857648461497349;0.0317319578426396;-0.9543664471555813;-0.25255036681829335;-1.2676105495069079;-0.11284505327151706;-0.2833779550283779;0.09915111617353745;-0.25639537647890753;0.4118911327577899;-0.38217741159212437;0.36576727512984064;-0.5338445466623156;0.32039545554609417
A;-10.9;-0.8213406423424008;-0.008631498590355946;-0.8529727183183944;0.029534459206653096;-0.9558820608826535;-0.2536263418509854;-1.2747380388670093;-0.1164631445641735;-0.2854862694312654;0.10027316976739886;-0.26486813552965405;0.4115222205588167;-0.38116871833539;0.365916051913338;-0.5290750197776628;0.320610022784547
A;-10.8;-0.8133383718218301;-0.012210195200042406;-0.8480677941372479;0.027165474032847747;-0.9580198073418815;-0.25517017809203413;-1.2824883455596705;-0.1207997139852468;-0.28741599719236977;0.10144862354947826;-0.2734753472922664;0.4111137385542416;-0.3799748069537987;0.3661786474905746;-0.5241435361520983;0.32063175192959337
A;-10.7;-0.8051489353510526;-0.015908244692765194;-0.8429404335026298;0.024620233305354233;-0.9605059135779355;-0.2570597332573774;-1.2903234904873715;-0.12554786029848586;-0.2891383244342789;0.10264570294808273;-0.2818751088183018;0.4108047728034325;-0.3785249229443979;0.3664897816027253;-0.5190226572708889;0.3204268438045075
A;-10.6;-0.7967346411061866;-0.019729199158099675;-0.8375731364705725;0.021897239739071317;-0.9629543213903622;-0.2591270769314127;-1.2975511469199494;-0.13031970685887018;-0.2906261629421625;0.10381275946490476;-0.28956055327046837;0.41082169997966256;-0.3767147680648968;0.366766244496052;-0.5136595737299228;0.3199603977118559
A;-10.5;-0.7880810488634076;-0.023671085873137265;-0.8319640480096133;0.019000493179001765;-0.9651354427942289;-0.2612525006864539;-1.303931577266792;-0.13493791238702002;-0.29188755363420604;0.10492083533002461;-0.296437265494248;0.41117444739864295;-0.3745435491548941;0.36695627102082273;-0.508039751042415;0.31922381342977335
A;-10.4;-0.7791559689007066;-0.027731717509373865;-0.8261023611423663;0.015934723209232615;-0.9667735969519073;-0.2632933377508593;-1.3091972617842824;-0.1392022957079586;-0.2929391095868281;0.10593364670720984;-0.3023809659245593;0.4118911544395987;-0.3720119309217358;0.3670008100108566;-0.5021415532212545;0.3182109635036152
A;-10.3;-0.7699821076301792;-0.031907978767916845;-0.8199941977680698;0.012702575719600873;-0.9676747561998456;-0.2651830193650957;-1.3127312059667897;-0.14281863730539435;-0.29371070012570843;0.10682653964258293;-0.3069253811883108;0.413169132051344;-0.36899097156405425;0.36684780053142774;-0.49592872849557246;0.3168818747723656
A;-10.2;-0.760609322337328;-0.0361930566524169;-0.8136573802665259;0.009309563630621298;-0.9677483902884427;-0.2669014924243207;-1.3140538031864626;-0.14557712223687336;-0.294124932495615;0.10758947216716397;-0.3097243910768457;0.4151375419438361;-0.3653670121979067;0.3664632281617388;-0.4893799191230057;0.3152005046891073
A;-10.1;-0.7510357895167079;-0.040596298044953905;-0.8070956320927234;0.005747024763777198;-0.9666552901164218;-0.2683147181257821;-1.3123006811590372;-0.14703227076863;-0.2941172134539052;0.10818333502597532;-0.31014521023150365;0.4180879026088138;-0.360995998162422;0.3657636281845784;-0.48244454975623263;0.3131130214016289
A;-10.0;-0.7412587403002346;-0.04511850874189083;-0.8003052612470771;0.0020142027995655454;-0.9641129153311381;-0.26931544590352186;-1.3067163914593687;-0.1468104724917314;-0.29362311508495154;0.10857268174840407;-0.3075966387469169;0.42229308167087387;-0.3557397701015921;0.36467945280637615;-0.4750728585414139;0.3105759002275219
A;-9.9;-0.731328964749796;-0.049741748042667844;-0.7933114961710022;-0.001870709426739836;-0.9602224632135039;-0.2699170232521695;-1.2976950894605936;-0.14508011469141557;-0.2926606258579083;0.10877375493350883;-0.30253419242677637;0.42746183390744674;-0.3497029390128805;0.3632199651895327;-0.4673041899154109;0.3076115436661482
A;-9.8;-0.7213030686734516;-0.054454077324424865;-0.7861536001259397;-0.005894685220840579;-0.9551100321029962;-0.27012385910159864;-1.2858235837257954;-0.14207215774693704;-0.2912790850167788;0.10881204450932636;-0.29564320429413726;0.43318516143537966;-0.343064648766668;0.36139687588297864;-0.45920112049184425;0.3042513721595963
A;-9.7;-0.7112242938988862;-0.05919390523474721;-0.7788161511464304;-0.009999152908883424;-0.9491476924334483;-0.27008193774874467;-1.2720021315148564;-0.1382990741136183;-0.28949304177081103;0.10871841864764242;-0.287534744236865;0.43910675672579247;-0.3359423746971366;0.359288761478334;-0.4508020868628364;0.3005676647646425
A;-9.6;-0.7011441506966642;-0.06389731923751452;-0.7712883787725104;-0.014123164054568704;-0.9427630945121832;-0.2699551979211403;-1.2572941683463768;-0.13434892130420373;-0.2873281799542404;0.10853147840458721;-0.2789802286159637;0.4447812107317026;-0.32848716942105405;0.35698542911488573;-0.4421585258745475;0.2966415276851606
A;-9.5;-0.6910833196631421;-0.06858407118144516;-0.7636147896460113;-0.01828444748097713;-0.93579001426889;-0.2696241561534274;-1.241588015204588;-0.1300717795887767;-0.28481886963327874;0.10825171564420888;-0.27012602647516015;0.4501134745287496;-0.3208074802203109;0.35443130078115104;-0.43329936208176445;0.2924599758619939
A;-9.4;-0.6810395500388591;-0.07326958684531881;-0.755821920864804;-0.022497220831138698;-0.9280228768022107;-0.2689625688272823;-1.224622326172196;-0.12526848728705264;-0.28198789320107753;0.1078703522033937;-0.2608898466276761;0.45514894465875466;-0.31297108150018627;0.3515664000824774;-0.42423280744921765;0.28800866740616105
A;-9.3;-0.6710650796821271;-0.07798513158272513;-0.7479847173236696;-0.02678884574042062;-0.9193300359236192;-0.2678471416282351;-1.2065030551005238;-0.11984018601227753;-0.27889411694377575;0.10740104571477538;-0.2518188707396969;0.45954320151685346;-0.3051549040329782;0.34833648613002133;-0.41502209298207404;0.28327400290350724
A;-9.2;-0.6612016777469698;-0.08276483901638798;-0.7401750897200801;-0.031189695455962507;-0.9095449827466675;-0.2661401779431891;-1.1872537554199578;-0.11364461246632551;-0.2755960332038212;0.106854012872998;-0.24338828218315234;0.4629962787110169;-0.2975278807185111;0.344680156560945;-0.405724050946179;0.2782391319698623
A;-9.1;-0.6514149909358853;-0.08750135459670805;-0.7322925730433631;-0.03559995381737302;-0.8991303425122608;-0.2640660064507516;-1.167773118458527;-0.1073268560826861;-0.27208021822482475;0.10624376440694139;-0.23572743883063918;0.4654721824887469;-0.29010884460820563;0.3407176332527646;-0.3963185926203021;0.2730137702194666
A;-9.0;-0.6416746186811482;-0.09204929024009711;-0.7242038115717859;-0.03988391789803725;-0.8887765426001453;-0.26196679890324326;-1.1493830131216187;-0.1018138123711605;-0.2683200814170634;0.10559457279721762;-0.22916288370358018;0.4668141145796616;-0.28290227705867377;0.33662857637616916;-0.38678363704996244;0.2677448111533356
A;-8.9;-0.6319017162025728;-0.09632083292896976;-0.7158003214591995;-0.043961837229161915;-0.8787371793871754;-0.2599811740137792;-1.132458921631076;-0.09747487487755802;-0.26429113146510463;0.10490154056357515;-0.22339113670919764;0.4672435239099282;-0.27587152862200526;0.33248706694259855;-0.3770644919669719;0.26251534578225044
A;-8.8;-0.6220029024246507;-0.10021251069670978;-0.706951332321788;-0.04773978098575693;-0.8693279173210611;-0.2582862124226093;-1.1174356219180948;-0.09475705513317578;-0.25996088132711215;0.10415897566292553;-0.2179841797164177;0.46707365488855856;-0.2689580015727273;0.3283870613406732;-0.3670951949875061;0.25742239518304144
A;-8.7;-0.6120392481456784;-0.10365422105938116;-0.6976406664903614;-0.051149410086885005;-0.8610156173053207;-0.25707770897077786;-1.1055024015460693;-0.0942835746329802;-0.25534255083195134;0.10340378893052016;-0.21405843502143806;0.46558680083729076;-0.2622693686296058;0.3244328410002506;-0.35692717263145113;0.2525465159767539
A;-8.6;-0.6020934585916553;-0.1066168474984206;-0.6879005636466644;-0.054160199021153765;-0.8540831442873431;-0.2564503335505002;-1.0975805365055185;-0.09643386636975215;-0.25046360500118237;0.1026707821566708;-0.21289710161022768;0.46192840316013895;-0.25594119155231976;0.3206759815542046;-0.3466300851344002;0.24792908202793207
A;-8.5;-0.5921822261086893;-0.10897861207178838;-0.6776456500647896;-0.056656914613973264;-0.8492230474288016;-0.2567285933711272;-1.0951120020643037;-0.10213078800619968;-0.2453234872968535;0.10199820189223452;-0.21511920268062656;0.45577375053955427;-0.2500388714864741;0.31729095464246715;-0.3362288833440541;0.24370203884239405
A;-8.4;-0.5823458845002252;-0.11064143363180001;-0.6668235074273268;-0.058545894480522165;-0.8470400092272792;-0.25818848622514423;-1.0994034242641422;-0.11216968967435825;-0.23992656966290316;0.10142527565777826;-0.2214518942419903;0.44671152197191644;-0.2446397464478398;0.31442566870144706;-0.3257642790959254;0.23997281933911419
A;-8.3;-0.5725270435691217;-0.11165526797538838;-0.6554596131366512;-0.05987668421351344;-0.8470714702348436;-0.26060243109104775;-1.1095476506193944;-0.12596478508814268;-0.2342810244671405;0.10092481808985898;-0.23155151693065035;0.4349039700065389;-0.23973621337090467;0.3119628760937454;-0.31520574711607274;0.2366862128282925
A;-8.2;-0.5625949836217208;-0.11208113660249008;-0.6435504966716366;-0.060712183432075406;-0.8486493609482766;-0.2636629502922183;-1.1240140105167447;-0.14267645319741185;-0.22838691747556705;0.10044634875138758;-0.24415560030228756;0.42113779949306096;-0.23525906854187806;0.30974611473726554;-0.30447550662561795;0.23377084178983543
A;-8.1;-0.5526222470475854;-0.1120765035826432;-0.6312828340359831;-0.06119884202403458;-0.8509385605453064;-0.2669284099942342;-1.1413994566955425;-0.16117520650735528;-0.22227508669765328;0.09997128324270754;-0.2596510052316705;0.4050101933845589;-0.23127146039225188;0.3075390609968922;-0.2936255062660793;0.2310599918446723
A;-8.0;-0.5426689392142388;-0.11182124911134306;-0.618856143227692;-0.061504610782160185;-0.8529527789528109;-0.2698856787522015;-1.1600178830083197;-0.18013346847225975;-0.2159778820322522;0.09947207307414718;-0.27839458166907427;0.38610954068950276;-0.2278251897155945;0.3050678250490826;-0.282698991206388;0.22836313435054967
A;-7.9;-0.5325456812769236;-0.11126885075960757;-0.606142559399748;-0.06159385276292895;-0.8545706167544767;-0.2725212438374758;-1.178980262781172;-0.1994397990664032;-0.2094799401110885;0.09891250035755395;-0.29787017363234947;0.3662496765834904;-0.22480208226130038;0.30233910988029056;-0.2715944357588125;0.22571982572893168
A;-7.8;-0.5220981651762227;-0.11035918702704439;-0.5930202839362524;-0.06141711584720433;-0.8558250228624678;-0.2748934335993649;-1.1976470471718175;-0.21916845702189836;-0.20276649652303913;0.09826985038510294;-0.3154962588242092;0.347335152623407;-0.22209823286855013;0.29939742969675365;-0.260236146308527;0.22318363492235482
A;-7.7;-0.5110655853903037;-0.10905957269485445;-0.5793352510018765;-0.06095343170596834;-0.8563840610344284;-0.27689851459829384;-1.2148710831801885;-0.23895294347366214;-0.19581888536940006;0.09748470573242507;-0.3292007694105914;0.3307785864780328;-0.21955441599138492;0.29620271174249435;-0.24847147383094725;0.220781372767469
A;-7.6;-0.49918170308565113;-0.10732507601396968;-0.564919753452652;-0.060170761881947143;-0.8559845863820561;-0.2784715565139182;-1.2295425386272445;-0.25851463480797765;-0.1886164323874544;0.09649983570901188;-0.33660520914833425;0.31823510145063283;-0.2170006924389698;0.2927370465017818;-0.23614764915938302;0.21855165308471047
A;-7.5;-0.4867111121724914;-0.10535505980541338;-0.5500945145863216;-0.059248706072161816;-0.8539465136771662;-0.2792162502572477;-1.240643816934794;-0.2768336467249197;-0.1812061745697049;0.09533938512083484;-0.338712716071107;0.3089373785731464;-0.21458156962827513;0.28878274340156196;-0.2234464474566007;0.21628397146231082
A;-7.4;-0.47405351429068343;-0.1034363370488105;-0.5353258745699261;-0.05844361325254699;-0.8493368056029054;-0.2785739307149724;-1.2472085167492741;-0.292510961134556;-0.17365676994278356;0.09404133665582037;-0.3384671082722095;0.30065966730372606;-0.21253211206998834;0.28402749627765544;-0.21062836276731556;0.21368166690599066
A;-7.3;-0.4614416431300512;-0.10169099666074644;-0.5208513061650581;-0.0578650195197179;-0.8418903335638435;-0.27637464334487305;-1.2485016858394689;-0.3050727399085078;-0.16600444738399656;0.09264342161559647;-0.3351532831849511;0.29400000258532666;-0.2109534476671735;0.2783817908145796;-0.19787185944421815;0.21061009298137234
A;-7.2;-0.4491705521288436;-0.10026516774124783;-0.5069610547852319;-0.057642818514887395;-0.8313250648047701;-0.272427067288322;-1.2438148789227892;-0.31399746319151056;-0.15829277001805142;0.09119401441337693;-0.3283109045399497;0.2893851585855467;-0.20997902174995886;0.27174247025770715;-0.1853955542761998;0.20691022753867205
A;-7.1;-0.43737047127681095;-0.09935650236249849;-0.49390137042547355;-0.05795606673656728;-0.8167311980122003;-0.26623492414751304;-1.2326220599319573;-0.3180200851191364;-0.15056579371314793;0.0896803994665687;-0.32222644660722244;0.28347743746894594;-0.20971193239508246;0.2638373916758274;-0.1732758474641498;0.20238705783778244
A;-7.0;-0.42603422435597516;-0.09909154065051151;-0.4817849980527322;-0.05892147379600665;-0.797363070879558;-0.25741580744374915;-1.2145900796940863;-0.31614092539194516;-0.142851201348555;0.08807155577087666;-0.32073330242346154;0.2732607928601687;-0.2101757407504552;0.254461677783822;-0.161503917907182;0.1969200591637148
A;-6.9;-0.41547229397784324;-0.09975361564919982;-0.4710244915433197;-0.06079206413941485;-0.7721566276176217;-0.24535984055472504;-1.1889038250128054;-0.3068176502470905;-0.13521342358216693;0.08637989486121977;-0.3282172126726879;0.2553605867764386;-0.21156127344169207;0.2432753476976517;-0.15026971604787054;0.19022488237073087
A;-6.8;-0.40592530483591194;-0.10159059399462667;-0.4619644982416862;-0.06378901610138055;-0.7401293881306499;-0.22950996431690918;-1.1550002789122358;-0.288643954926493;-0.1277105445225093;0.08460798811997616;-0.3494043222652259;0.22613397274588776;-0.2140279850504676;0.22996893011985975;-0.13971643980131;0.18205759041593605
A;-6.7;-0.3972010667456045;-0.10444856693754456;-0.45438023710786357;-0.06777712418792348;-0.7018770312875793;-0.21023595166364917;-1.1129427771854319;-0.26242001208450993;-0.12032252175865832;0.08275261550934054;-0.3805908142154646;0.18844085560936463;-0.21740516966359458;0.21476665817586937;-0.12977330545741061;0.17256934456158834
A;-6.6;-0.38909240198492334;-0.10809630163413964;-0.4479723538107683;-0.07255113053814632;-0.6584339759530691;-0.18814804864962298;-1.0626432399176222;-0.22951277427641603;-0.11301601267538963;0.08082747666891787;-0.4146141413082187;0.14782819412007342;-0.22147024116906255;0.1980295425394969;-0.1203811332975766;0.16198206061182807
A;-6.5;-0.38107962578870236;-0.11222916362706314;-0.44221254942685206;-0.07784125753621662;-0.6106708515175798;-0.16380393426217044;-1.005305507800565;-0.19122720702973695;-0.1057428131511946;0.07877919303891723;-0.44989882428307615;0.1054749276478093;-0.22592114314094314;0.1800908732331008;-0.1112453187851159;0.15062063007639326
A;-6.4;-0.37258018623259126;-0.11648518249037476;-0.4364902828620645;-0.08332676400522043;-0.559685617676184;-0.1378956268384126;-0.9423222356783567;-0.1491853757381829;-0.09844377764952483;0.07655327055948113;-0.48402529147310425;0.06321827368325161;-0.230407238210244;0.1613610067823572;-0.10203937354823722;0.13886712639121068
A;-6.3;-0.36374255120645493;-0.12083423118850067;-0.43085990034886645;-0.08897615666005709;-0.5060010133168245;-0.11069536518049539;-0.8726951256435038;-0.10394321279116259;-0.09112857478768355;0.07420064842348939;-0.5101480233400268;0.026393222313138676;-0.23489355927603217;0.14200177806715253;-0.09291314377900406;0.12673828572804968
A;-6.2;-0.35476434121205;-0.12529955805117154;-0.42544490032447424;-0.09480355674528873;-0.4499153705097729;-0.08233843472167646;-0.7954488643815001;-0.055752930671463474;-0.0838191152208605;0.07176876673309174;-0.5230197169089146;-0.0009030339393545361;-0.2393971294814028;0.12209524217579215;-0.08403108018495953;0.11420439630319068
A;-6.1;-0.345760136662566;-0.12977817109160483;-0.4202215829273115;-0.10071468738760725;-0.392339805767671;-0.053326518778173515;-0.7098874090228642;-0.005671856446986645;-0.07650988804097913;0.06932311454089835;-0.5143520867363485;-0.01217405195708432;-0.24381352180737714;0.10193518650488276;-0.07554810305117954;0.10134489624956267
A;-6.0;-0.3368912157229369;-0.13418985240023318;-0.41520849854236097;-0.10663391299098457;-0.3341395462476946;-0.024126846379984634;-0.6152309979107642;0.045319995242003586;-0.06920097127729719;0.06693394510723305;-0.47589018614469936;-0.0009371511150155776;-0.2480647394028601;0.08179319692703846;-0.06764410824074574;0.08821774155129036
A;-5.9;-0.32754568729941536;-0.13826606860570134;-0.40985061201221384;-0.11231737792697416;-0.27580294723765864;0.0049271229533944805;-0.513872937713796;0.09634418401901179;-0.06185865253088352;0.06450493316293926;-0.41287745332022885;0.02870923842089601;-0.25190223928853595;0.06187010546667526;-0.059906894978210445;0.07514970457971071
A;-5.8;-0.31683165484174136;-0.1416400440532133;-0.40336263338211786;-0.11743651326810234;-0.2178734147969985;0.03343047047283498;-0.4095535485842148;0.14632484948313262;-0.05442886751438536;0.061892057344324236;-0.33493762089705026;0.06927216564706162;-0.25497744511728815;0.04241017227408772;-0.051731253203252336;0.0625839591889843
A;-5.7;-0.3044003155019075;-0.14418734675761335;-0.3954441350923519;-0.12186881330120602;-0.16047278881551108;0.06129811920181538;-0.30381250059742326;0.19495972767157532;-0.046909516678208085;0.0590232333147096;-0.24679224821344592;0.11709181246535039;-0.2571932208950347;0.02346082388515569;-0.04284964952963133;0.05070497484276215
A;-5.6;-0.2898335181357492;-0.14577159415577867;-0.3857462410317387;-0.1254802258523835;-0.10366179375375495;0.08847749204931787;-0.1985292348590657;0.24198783662041734;-0.03929737794485799;0.05580906007307007;-0.15475461486588005;0.1672519585721517;-0.258444522414635;0.005052442059223061;-0.03293534779584917;0.03972010670661641
A;-5.5;-0.27251614815034486;-0.14606218523514247;-0.37366845583619135;-0.12798136029090568;-0.04833836565183436;0.11435971323988614;-0.09721775722212467;0.2860394153643089;-0.031539064603467004;0.05218343076525489;-0.06558834085295784;0.21464713053209472;-0.25838319014941913;-0.012456956715598544;-0.02162821782021318;0.029989674673001065
A;-5.4;-0.25205942952190075;-0.14479754151466295;-0.35878936856908794;-0.12914434822336318;0.00457058702105595;0.13833552764317592;-0.0027301906879872995;0.32581942650109497;-0.02359312852484674;0.048124793516818976;0.016362423371212742;0.25612638863613313;-0.25672030838924353;-0.028715166699824657;-0.008735068485711928;0.021783999813932198
A;-5.3;-0.2276011792618995;-0.14157258762404634;-0.34030991855203396;-0.12861068748515514;0.05419507478281371;0.15981588846847394;0.08068608201204697;0.35986264358041353;-0.015396547129700622;0.04351511459495594;0.08168986200641637;0.28438902128814725;-0.25305536445428256;-0.04336258334728971;0.00630147005964421;0.015570883333583918
A;-5.2;-0.19838801161616626;-0.13601995349517004;-0.31752242107983264;-0.1260571664893888;0.09967128021964822;0.17821879960814613;0.14891720358033478;0.3867699293247058;-0.0068916372984126895;0.03825868453128667;0.12132419479042911;0.2924254988584942;-0.24701021128746792;-0.05604379272899429;0.02395518035008415;0.01176792169515739
A;-5.1;-0.16497337880324459;-0.1283470478955282;-0.2908804078012466;-0.1216501301092281;0.14111347695129073;0.19368588573060652;0.20321228450828022;0.40696330172699957;0.0018597362862076139;0.032435742803001766;0.1384641570745635;0.2829384818070553;-0.23879909956478151;-0.06686443670517139;0.043877186453217476;0.010170441613406744
A;-5.0;-0.12818608663198638;-0.11890672950045733;-0.26109639857962463;-0.1156749638815846;0.17899642545416405;0.20663544958567215;0.24639132253298524;0.42142587006853294;0.01076008678511542;0.026149277856279518;0.13954710402628256;0.2610476015290919;-0.22880801468679302;-0.07609065674259963;0.06557776941181004;0.01043740694997286
A;-4.9;-0.08901972375689216;-0.1080503229245302;-0.2289912848543274;-0.10843736102846968;0.21340520728200651;0.21718839672373758;0.28014093825377007;0.430790766989519;0.019731305278381406;0.01957760690626298;0.12909716339417399;0.23062747774195946;-0.21731492399099483;-0.08381674357950075;0.08834867779760547;0.01215674262396238
A;-4.8;-0.048656925985130606;-0.09621144367300172;-0.1955532129981421;-0.10031323604095643;0.244560601820778;0.22556129048583617;0.30685356534687935;0.43594711349705717;0.02867876292363203;0.012924959179374973;0.11319133280452931;0.19682804506701057;-0.20468305192818725;-0.0902021378907989;0.11136282092526262;0.01482696067969691
A;-4.7;-0.007332946237234239;-0.0835278148465326;-0.16099330441380744;-0.09139539240429517;0.27277088652682213;0.23209628435991014;0.3279041978910908;0.4373634870751051;0.037537626506925825;0.006187537339820359;0.09462026620478659;0.16145465666144831;-0.19111791292609492;-0.09541687781564079;0.13457185309627828;0.01838460151344412
A;-4.6;0.0348917266526767;-0.0700615757419829;-0.12537085584475705;-0.08171512882580778;0.2982037957972583;0.23704243917930956;0.3438316093627205;0.43525786451003246;0.04625982936771411;-0.0006583558099686471;0.07414979068597605;0.12457779173498285;-0.17673079905172795;-0.09955667509777388;0.1580313045595707;0.022844818835943137
A;-4.5;0.07752620369031149;-0.056073554958211425;-0.0891269690970864;-0.07146413038644273;0.3214580387653303;0.24090953878694954;0.3571694811237194;0.43056318842953845;0.054754483894667416;-0.0075939539426341796;0.056747052396609377;0.09004550731285077;-0.16189245857643542;-0.10293800750504456;0.1815575808294989;0.0280237936509935
A;-4.4;0.12014358776869027;-0.04180526966167264;-0.052652021408118976;-0.060817333861256984;0.34313104257052096;0.2442176951906001;0.3703578019624252;0.4241781391063002;0.06293291135936752;-0.014612463343024906;0.04711513411032531;0.06144995970150546;-0.14695409730534426;-0.10586922619340466;0.20501724236729846;0.03376540802404904
A;-4.3;0.1619052786966071;-0.027516395519145753;-0.016629523079511266;-0.050023370998755645;0.3629617629382169;0.24683696608997607;0.3830373965638292;0.41627987310336456;0.07075111684272972;-0.02152025432977034;0.044526861234502224;0.038303055355444204;-0.13199227799923374;-0.10825361756840302;0.22772684893485273;0.03971141601120154
A;-4.2;0.20171454155587565;-0.013526377312705229;0.018055145094661107;-0.03939700082113795;0.3805301945579638;0.24846426120375043;0.3943740446156405;0.4070107761827422;0.07817004723517673;-0.028051464880832988;0.04720668218867452;0.019854472689090574;-0.11707659754786892;-0.10993226928512545;0.24875521825733848;0.04538225776653704
A;-4.1;0.23915612122794538;5.243843426150363e-05;0.05106958526676042;-0.029057997891553278;0.39546619720176324;0.24896433706308763;0.4033459539666491;0.39619929361293993;0.0851645799413756;-0.034086998894736986;0.05316012393694214;0.004366270330584676;-0.10213977725615742;-0.11072553521308137;0.2677342466026671;0.05061417146707914
A;-4.0;0.27379504698836143;0.013112940405894946;0.08206809775745505;-0.019128549360399205;0.40730832408523554;0.24813518081363029;0.40859083630745374;0.3835853456401517;0.09171668985555925;-0.03949114749833438;0.05967547496019687;-0.010739611706306107;-0.0870765142767862;-0.11040797220363352;0.2842534039496156;0.055229785988013536
A;-3.9;0.30456657128098996;0.025290883764760963;0.11017517363643758;-0.009931940767716085;0.4161166540748722;0.24589046298541373;0.41057837835202404;0.3698190130026138;0.09776638321644615;-0.044063016370921027;0.06682572971562006;-0.023362950497284096;-0.07217724221125632;-0.10907773847695967;0.2975318373198963;0.05877340173495105
A;-3.8;0.3305745019894637;0.03625383093821721;0.13464674835802803;-0.001749927901956383;0.42213104768745424;0.2422638126161969;0.4102659424145365;0.35565941873005347;0.10324831719927374;-0.04765894065547727;0.07556689719831944;-0.030561561501697643;-0.05777764597185708;-0.10691622368786025;0.30697328766211296;0.06087199508836072
A;-3.7;0.3505724667586527;0.045595650892900075;0.1544546466954797;0.005038274734545212;0.42525307423768766;0.23707440815910008;0.40773910697858895;0.34168969573790786;0.10811199733647481;-0.05001247840893264;0.08528722227935148;-0.0327782396099674;-0.04411530009989928;-0.10393981728143764;0.3115915750752922;0.06096636984966075
A;-3.6;0.3634114250471061;0.052936479062357655;0.1686518944357358;0.010085260864604706;0.42545462422948255;0.2301596880480492;0.40318508355062965;0.32850451624426835;0.11230929132224965;-0.05088741027369892;0.09541419870134771;-0.02943905845738648;-0.03145317554411253;-0.10020924981242008;0.3104989653134469;0.0585462156232901
A;-3.5;0.369550711766931;0.05838627709188504;0.1776026826583026;0.013504858801424824;0.4228198793616542;0.22174945720818062;0.3966145623838204;0.31597029513397334;0.11581847483789875;-0.05039902278613617;0.10596120530978848;-0.02146927910021157;-0.019734089941933597;-0.09572647141969082;0.30415129390108664;0.053859053037079274
A;-3.4;0.3698767747827647;0.06219280104977276;0.18201362804696775;0.015529592104027046;0.41736313262274116;0.21217272270280674;0.3877983424403353;0.303651653300701;0.11863267244847098;-0.04873695185572213;0.11696066641761416;-0.011705138466693743;-0.008751220212928068;-0.09041677585977226;0.2933209909101615;0.047338709948186786
A;-3.3;0.3652129433016116;0.06456511537102028;0.18256124225975245;0.016403677058297816;0.4094747375524683;0.20171268995519398;0.3771704280459902;0.29147980933390016;0.12073622741090517;-0.04614151471811834;0.12846463561490973;0.0051594267340973055;0.001409185781279021;-0.08449255977877534;0.27885379258512266;0.03942816611193711
A;-3.2;0.35661373353189596;0.0657815160723878;0.18010945173364146;0.016434135937902106;0.39957203246613204;0.19069775534569988;0.36515561620676573;0.2793117111088401;0.12211824091744461;-0.042903719545950736;0.14061791593127104;0.03318710401207747;0.010707668132208248;-0.07815764260698188;0.26178934730683157;0.03067743248519328
A;-3.1;0.344404851777143;0.0659276245207705;0.17488845814286247;0.015681394499027057;0.3874963201958064;0.1793491609183695;0.35145594797167323;0.26680988104963443;0.12278327922395338;-0.03905429501415991;0.1534393774419831;0.06772775554779464;0.019340610072712927;-0.07127867876882021;0.2423515090587154;0.021214508042599167
A;-3.0;0.3287035482249383;0.06502796354867257;0.16696018418801906;0.014156506102712463;0.37310394381590584;0.16782192937846308;0.3358307113941117;0.2537127757222901;0.12273981001544954;-0.03458074297890068;0.1667371101427677;0.10260630394253578;0.02742582144031669;-0.06377478239426804;0.2205893259696987;0.011065759854909096
A;-2.9;0.3101946703372471;0.06327764522397228;0.15684162366194787;0.011995820714431282;0.3561805386059813;0.15636789895144432;0.3177330268993219;0.23957000831762;0.12199562076404291;-0.029578085509754715;0.18057251081336956;0.12151309971257174;0.035333229513084596;-0.05538574884540637;0.19700611357756426;0.0005210311933843137
A;-2.8;0.2895183341354324;0.06086042520417667;0.14501015446835108;0.009318849387144112;0.336494675812137;0.14522428383360175;0.2966141232634336;0.22396139337125387;0.12056441634404091;-0.02412538590005031;0.195014221587674;0.12159644480202392;0.04343578766839684;-0.04584654060617677;0.17205271579262238;-0.010160309685480318
A;-2.7;0.2672360621553631;0.05790999068485281;0.13194693509286015;0.0063410003823447525;0.3146742351570335;0.134469193169946;0.2732039449022228;0.2070497733680785;0.11845356869632795;-0.018439722602876962;0.20919298391260766;0.11031610536477432;0.05135593445496145;-0.03564340691748402;0.14640338979508183;-0.020655360909429987
A;-2.6;0.2440373503015767;0.054587980640101286;0.118257707689569;0.0033273120424626157;0.29159005546553285;0.12411661809445729;0.24847549347206943;0.18921566932794498;0.11566279163797955;-0.012811323998223934;0.221921317260942;0.04955305591400938;0.058580036515947675;-0.0254070978643961;0.1209325955083349;-0.03054549352973268
A;-2.5;0.22010621933291397;0.05092096472746466;0.1040995222347334;0.0003654449400860571;0.2677654264817191;0.11420574874177536;0.22323946627555458;0.1708155844854451;0.11221738998708908;-0.0073462165038185034;0.23262436451344026;0.06932050115069988;0.0647179347887139;-0.015599272985882706;0.09593156682318149;-0.03972545831245089
A;-2.4;0.19560572226660167;0.046928146533314674;0.08961930841821975;-0.0024404466636260835;0.243824193678563;0.10475035390363718;0.19847465909962336;0.15221623936435869;0.10814661996049502;-0.002161753073034234;0.24061695172785136;0.08901522840137543;0.06927878276413857;-0.006787691671331864;0.07169883918704212;-0.04809376399398069
A;-2.3;0.17141352071593907;0.042831501794386995;0.07554561591507092;-0.004888472495852447;0.22022662929968817;0.09569904295824738;0.1742826677610303;0.13383902364112377;0.10343866309770089;0.002482196309383511;0.24493454080645627;0.13942012169549445;0.07226163875213132;0.0009260287051935379;0.04915522440718867;-0.055178434562318746
A;-2.2;0.14835605091026238;0.03884202491168853;0.06254486355896294;-0.006853322448814758;0.1972031475357321;0.08699617796471149;0.15043151831595258;0.1161949912032707;0.09808296869901678;0.006380350452951156;0.24495837001172838;0.19628831743791908;0.07388774499557726;0.007681046758333032;0.02910182682597018;-0.060562158651978226
A;-2.1;0.12741271542522004;0.035214217916864854;0.05145256296933898;-0.007992018318975447;0.175529843946709;0.07860188706451243;0.1275534475286939;0.09934341872557084;0.09208421342324247;0.009200211053850715;0.23948971637071326;0.2399940238029119;0.07382197896499498;0.012983405835705675;0.012614170779512435;-0.06370477662528362
A;-2.0;0.10950950904237633;0.032186305629319456;0.04305086450448581;-0.007995446065973688;0.15587260681500137;0.07044009760960179;0.10611073617689115;0.08331036580831963;0.08544288514405807;0.010640425316935875;0.22705383075799324;0.24244426974776223;0.07183958771663157;0.016465890003964034;0.0006908901916622412;-0.06410345197376177
A;-1.9;0.09436443943383566;0.029665578732202214;0.03704248698982404;-0.007088514879422192;0.13801393147369279;0.0625219195804032;0.08611359225012549;0.06873693621222277;0.07821028866363822;0.0108485331128092;0.20812849458911886;0.2114076082638756;0.0681533222612476;0.018339053234595504;-0.007059535467702105;-0.06200367719863209
A;-1.8;0.08135546710051766;0.02747198076183377;0.03283872277136268;-0.00552232689438803;0.12167348185122062;0.0549357490694069;0.06787407793520961;0.05589402562630408;0.0704698482814834;0.010071337348039222;0.18595000147591811;0.1772923053418598;0.0628299170476394;0.018661219306960852;-0.011396950542015283;-0.057858732865424756
A;-1.7;0.06998996923049461;0.025442936783798054;0.029929007109116057;-0.0036663052019232367;0.1061171862349779;0.04752760777633558;0.05051557664397022;0.0452695458846879;0.06223780104692356;0.00858530660304968;0.16180160644372865;0.1470642512924898;0.05662565167294886;0.018278308354960693;-0.013010618370319804;-0.05205048804813206
A;-1.6;0.059609811228291676;0.023371259790796906;0.027654246931826165;-0.002026135051931277;0.09046926981687697;0.04014442079034097;0.03303862127536483;0.03774025084734589;0.05353849217628781;0.006732625748264276;0.12820734218645935;0.0747351520473698;0.05040132849679413;0.01816566872358294;-0.012785154226715001;-0.045066003246438946
A;-1.5;0.050020657906774346;0.02121294918460137;0.025831886378666624;-0.00030841847242513154;0.07513704269342636;0.03297537933534844;0.016879566613213992;0.03153221574654008;0.04448308171642079;0.004550137547843391;0.09626285158149583;0.07861416077446615;0.04345117583165781;0.017438366018750706;-0.010969487083431595;-0.03710028338108362
A;-1.4;0.04119202630177199;0.01896919083917581;0.024427214865537117;0.0019077818973984861;0.06066497065235321;0.026177167182553696;0.0035933062629118773;0.02428389369268924;0.03517228679834705;0.0020092340798454345;0.07765877931458531;0.05283715586800364;0.03494967082689726;0.015044566099550849;-0.007625124012465179;-0.02824498694005584
A;-1.3;0.032650287903688735;0.016522380000615122;0.02301245456009937;0.004340619327543926;0.047238866931617274;0.019959900448309753;-0.005672102538890389;0.01693015764229422;0.02574232588640779;-0.0007422471856770585;0.03316572154822772;0.0181102707857832;0.024466407753760855;0.010438972113625766;-0.003313268726103935;-0.01887196054996787
A;-1.2;0.02396062560893686;0.013769632702890888;0.021199789878617814;0.006960040355676433;0.03514015218473432;0.014551905698617418;-0.009579841496487607;0.009191526431973962;0.016334860604081847;-0.0035809023162007847;0.004603676781627097;-0.007325563039610294;0.011434234287478695;0.0029398937860234398;0.001451783423745745;-0.009329266775790046
A;-1.1;0.01487877327137177;0.010607998463359358;0.0186920923503191;0.009425363065798109;0.02360286800545275;0.009560988661795555;-0.009444709996442313;0.0006820911198213153;0.006911233164667685;-0.006301323807334391;-0.025219209427545408;-0.03257044840066792;-0.0032458238372123915;-0.006519288241583432;0.006238588898351161;0.00016306272181987325
A;-1.0;0.005097774496716667;0.006899247719927004;0.015108742308571621;0.010942512382413838;0.011333999289559138;0.004382788704067053;-0.007853618279010544;-0.0062894038460399315;-0.002617309280989133;-0.008607284712127239;-0.05347119557889091;-0.05772273743867329;-0.01786544167818782;-0.016020653219503522;0.010502150475251604;0.009346622151403139
A;-0.9;-0.005322643874143829;0.0026433951665127964;0.010447370038204618;0.01275520534572383;-0.0018544911213895787;-0.0012427993039727525;-0.005009462989367108;-0.018480113690442224;-0.012265398925763726;-0.010458575891902022;-0.07995188383925322;-0.07808522364767345;-0.03232634708020132;-0.02541861278404678;0.014169513347488838;0.01818712149724666
A;-0.8;-0.01629069879062861;-0.0021549977209698312;0.004728678112281948;0.01576102222995157;-0.01623529289616421;-0.0076407755681051626;-0.0013469189991699437;-0.044996066427025916;-0.022067906653803426;-0.011815161872858582;-0.10297200124946615;-0.08840222693074118;-0.04642102159183281;-0.03456401641495166;0.017192204299250946;0.026673291146860567
A;-0.7;-0.02831656057119325;-0.0076714340577748175;-0.002582471940488773;0.01853941800761927;-0.03310035836266323;-0.015238892310475372;0.00039510054222668956;-0.07877277310892694;-0.032033858549803895;-0.012310025983699013;-0.12137519102703731;-0.09126503730046176;-0.05811481284321296;-0.040871973176789034;0.018845298768265906;0.03441002815379024
A;-0.6;-0.04189382423879273;-0.01406058685315692;-0.011985103989258228;0.02007059145724277;-0.05347470071121574;-0.024309010276772014;-0.0019879556847532953;-0.09942982829134284;-0.042124790036479176;-0.011612191207511557;-0.13440357885408982;-0.08881030654533184;-0.06565468978166145;-0.04210000464661334;0.018451232890837055;0.041006705401572585
A;-0.5;-0.057578501587154385;-0.021525512290039295;-0.02406951519599243;0.01661525195446867;-0.07892317144480554;-0.03544742499938813;-0.011715060748532569;-0.09961651779169678;-0.052409474622327146;-0.009319705122568855;-0.14044989772999195;-0.08939506372075989;-0.0668195903824742;-0.0363795181264166;0.015209070569619065;0.046056651816457794
A;-0.4;-0.07589857299069713;-0.03025498133841431;-0.03939259452146526;0.004707154840490446;-0.11094295971961632;-0.04919319825361068;-0.03198036884066058;-0.10562428260398526;-0.06293707356753231;-0.0050436751821774095;-0.13805271611650793;-0.10082119556329339;-0.05935843900573623;-0.02100945060360182;0.008362533230323876;0.04916711600528467
A;-0.3;-0.09648869234071977;-0.04009804702898201;-0.057595839979596164;-0.012862769819139253;-0.14842539891521955;-0.0652125968779087;-0.06040140648315573;-0.08637424846119846;-0.07356469471509719;0.0010024335923137784;-0.12781643159367784;-0.1162823834876403;-0.04475483149138881;0.0021875546946423796;-0.0017149816362787007;0.05047921381149445
A;-0.2;-0.11871624092100763;-0.050808961317669876;-0.07805016441960877;-0.032755519156516755;-0.18948419605114797;-0.08297413490867012;-0.09274318691673855;0.03203613566729846;-0.08412743226319197;0.008410637383985176;-0.11090868028651135;-0.12822878148052164;-0.025844396142034043;0.027630919688728106;-0.014319004135852076;0.05030815157451052
A;-0.1;-0.1421236062104363;-0.06218833516802924;-0.100287866752506;-0.04979952532260956;-0.23282380672667813;-0.10191909235791297;-0.12678594472670568;0.13397608954116613;-0.09439516486732913;0.01694042254896555;-0.08821151897618718;-0.12359620656624104;-0.003745902061104367;0.05729310518813513;-0.028919141893913647;0.04883088669885716
A;0.0;-0.16613163998333835;-0.0739892045030155;-0.12371435292157162;-0.058683494457759444;-0.27682230621494774;-0.12136541667639822;-0.15967731630170912;0.05435417325169123;-0.10411055789303614;0.026273504866432873;-0.06088944396734375;-0.08938445321739907;0.02000003793351457;0.09612802528851283;-0.04482907418213333;0.04629840243683958
A;0.1;-0.19040957780529943;-0.08608961170195961;-0.14800225927020527;-0.062034442363252396;-0.320337458608126;-0.1411421909411965;-0.1883274223221001;-0.10946913567133976;-0.11324226272635851;0.03614754439761647;-0.029513142009280013;-0.03406073829887957;0.04307789824850694;0.134301469858098;-0.061715411490887995;0.042886070918623176
A;0.2;-0.21476408957715787;-0.09842087996914373;-0.17296179576069992;-0.0639057826766134;-0.3626468216160088;-0.16120926684779224;-0.2105894755438178;-0.20769226879340685;-0.12179243523896677;0.04639163876525032;0.005619420845096812;0.0302922574304767;0.06381103814900513;0.1584516554458597;-0.0794056696230907;0.03869279208397014
A;0.3;-0.23862777636887955;-0.11077045166347332;-0.1980256148307875;-0.06826623457607717;-0.4020926945705918;-0.1812133042649684;-0.2224418317729624;-0.2482652556152365;-0.12969134980637165;0.056610536395887756;0.043450126196358685;0.09058703851806005;0.07920667733171438;0.171769415164567;-0.09728773291888704;0.03403817876676607
A;0.4;-0.26146799595035386;-0.12294102932577022;-0.22265864374571986;-0.07943747962432646;-0.4371022244879983;-0.20084048906971042;-0.2199931172379097;-0.26164914371744263;-0.13689087786609289;0.06642125181206904;0.08296518999144142;0.1328371342518162;0.08631750177711872;0.18133414369795897;-0.11478440659502631;0.02923157393846809
A;0.5;-0.2831056512027317;-0.13483544775374057;-0.24666086679594912;-0.09558758447330273;-0.4674851628740839;-0.21973783651600964;-0.2041204782194881;-0.23816762230903077;-0.14319644450426416;0.07581789053187826;0.12375056198857415;0.16137994529649502;0.0862962695566134;0.18469766056745307;-0.13165289647103773;0.024291291990919284
A;0.6;-0.3033589211162804;-0.14634168965170247;-0.26982453141879326;-0.11332163954168806;-0.4933238760910825;-0.23745063280685663;-0.17709840570659852;-0.17218681547987913;-0.14833611728829332;0.0848714147713272;0.1653769780663663;0.18488901495507637;0.08152964913673522;0.1788621419566372;-0.14763165591010807;0.019204503311803567
A;0.7;-0.3222944591700809;-0.15746575860005674;-0.29218807286428916;-0.13049962611027155;-0.5148892106430409;-0.25387260598752537;-0.1402849291305488;-0.09419390807369243;-0.15222963582227145;0.09366306908752176;0.20783654447531585;0.20938339458905908;0.0732836312731342;0.16683393751429776;-0.16275108333887012;0.013886998303556997
A;0.8;-0.3400349043171973;-0.16823209575679954;-0.3138420586010495;-0.14469624211821763;-0.5326511788738761;-0.26891029581301495;-0.09565187914220274;-0.040641212482027456;-0.15479080374033405;0.1023223107791047;0.25120413970265787;0.241829726299021;0.06332028831908598;0.15275334831074527;-0.17709279237968012;0.008218725848717412
A;0.9;-0.3561164806313206;-0.17842631900642036;-0.33430497959243777;-0.15627190974256067;-0.5462353892914953;-0.2820314757596032;-0.04455558912301916;-0.0040748165597586095;-0.1557596436894233;0.11077333585308935;0.2945890203014083;0.2794426113962145;0.05308877268538037;0.13804257160287303;-0.19012453644351623;0.002373737442551427
A;1.0;-0.3700360599640087;-0.1878262657818004;-0.35305761513814726;-0.16654637022664165;-0.5551178533634591;-0.29275236902521495;0.012303224256868361;0.03209264886616392;-0.1549256962885437;0.11888552320008205;0.3370335699132174;0.3166500954150555;0.04336084402832885;0.12334825433608732;-0.2012877156148054;-0.003425371624111051
A;1.1;-0.38139490440515633;-0.19623677556792352;-0.3696739906674589;-0.17580081248592982;-0.559109725359705;-0.3004945495683131;0.07285707951631393;0.06943265216354888;-0.1519941635391291;0.1266387494708905;0.37769061158050166;0.3509697252694757;0.03630202952865336;0.11178135324523542;-0.21007689627041515;-0.0090509338807645
A;1.2;-0.3897833987053936;-0.20345939986657058;-0.38371889485167987;-0.18442570600523212;-0.5580607528944448;-0.3047115237412168;0.13496275701876792;0.11075853978931871;-0.14668835384815093;0.13401127838316018;0.4157174278064968;0.3796184735029926;0.034032566264205144;0.10636027754023036;-0.21599188611211328;-0.014360796551891042
A;1.3;-0.3953803492825605;-0.2095730459104086;-0.395337507698617;-0.19230617868792255;-0.5521788028583652;-0.30565334868745353;0.19891207972597647;0.15489510377379734;-0.13918247357872104;0.14099232547445872;0.45125632443926644;0.4034077514376966;0.03581200945135432;0.10605180310072804;-0.21922749878475223;-0.019384016166217766
A;1.4;-0.3986139352988758;-0.21476796703178014;-0.4049158520423086;-0.19910623617194823;-0.541825705744178;-0.3038122782063608;0.265731778064644;0.19822996411224558;-0.1297850577776316;0.14759563773294992;0.4848184446567876;0.4245833725701953;0.04014375416866667;0.10880500978209096;-0.22023399224395224;-0.024240191108649167
A;1.5;-0.39955444296295983;-0.21908206104437955;-0.4125056869809294;-0.20478688855152694;-0.5272995072691051;-0.29953741877061013;0.3354085730554739;0.2404628710292247;-0.11871632183570124;0.1537941441977848;0.5165232526197996;0.44363946468931914;0.04611748153213213;0.11332911567809667;-0.2191845216904591;-0.02888085835427434
A;1.6;-0.39835451279582923;-0.22259227417273042;-0.4182391145306319;-0.20936175335326457;-0.5089727137244697;-0.29329074108385544;0.4081840638335237;0.28174308374397583;-0.1062625880030561;0.1595647308968724;0.5466210211349058;0.46121731888349693;0.0524730125510402;0.1178540527928309;-0.21634768783880176;-0.033278678297615105
A;1.7;-0.3954044616349277;-0.22546179366635943;-0.4224536394833134;-0.21308708139527166;-0.48710996742186996;-0.28534003532031615;0.4847131438816219;0.32351412864002027;-0.09260875148164693;0.16493799663281639;0.5754477228870325;0.4775313142450268;0.058496290964558106;0.12148923451910587;-0.21204404783579545;-0.03756305412787109
A;1.8;-0.3909967927513458;-0.22780692058034901;-0.4253925602615576;-0.21625894739909324;-0.4619605316685407;-0.2758424920473619;0.5651435714066664;0.36746396319390584;-0.07786917305381458;0.16995070500343257;0.6032062733800472;0.49236089485586065;0.0639896146463208;0.12403727648854979;-0.20649047137449195;-0.041832261343351274
A;1.9;-0.3857312255575627;-0.22988717605185727;-0.4275918947279136;-0.219237687798147;-0.43398814792592333;-0.26526712753534554;0.6504765623812445;0.41551282292196;-0.062355560299941715;0.17465719740895658;0.6304988497987973;0.506263214590136;0.06774916129983133;0.12395367482899555;-0.20021404917505414;-0.0462862817271632
A;2.0;-0.3802111738375169;-0.23196226863907565;-0.42959063745115245;-0.22237862221573845;-0.40364688813718086;-0.25406709159879615;0.7417180391087088;0.4695158249462068;-0.04636828084241529;0.17911516003435768;0.6579276119728581;0.5198030192805438;0.06862715568641597;0.1197715424303123;-0.19373575014259092;-0.05112847416798161
A;2.1;-0.3741928006349271;-0.23392434945513596;-0.43114717281428483;-0.22555784849052785;-0.3713886868840959;-0.24238732766556392;0.8368985651353551;0.5278103881417522;-0.02997464150269913;0.18333025134324288;0.685294826782751;0.5328668098782927;0.06724456318724847;0.11217487232564505;-0.18696616054079485;-0.05618607764402839
A;2.2;-0.3672486834024067;-0.23558955324334185;-0.43185172897003365;-0.22853023150798002;-0.337780625997234;-0.2303591442633044;0.9331154284293883;0.5876007726396733;-0.013227317987491993;0.18730295772278627;0.7122412077645515;0.5452848382771402;0.06464484647367552;0.10234295039473995;-0.17970606901947583;-0.06119467786590116
A;2.3;-0.35909703814899174;-0.23682650454191734;-0.4314224085568261;-0.23113659462873848;-0.3030563594950131;-0.21797394600911169;1.0287138084279634;0.6472998514025048;0.0038997769764517187;0.19102825674576351;0.7384681797777359;0.5568080956328822;0.06161944958609489;0.09122262646506663;-0.17176814116615446;-0.06598197646624815
A;2.4;-0.3493591750378906;-0.2374613917256454;-0.42948871524334553;-0.2331654176138045;-0.26744548086196573;-0.2051823501838621;1.12170227150806;0.7049272479564541;0.021465000406159618;0.1944972456331442;0.7635905059356056;0.5671038206284087;0.059185869375660616;0.0800401645696196;-0.16289307400721054;-0.07033406612887427
A;2.5;-0.33805942625047614;-0.2375129656306667;-0.42605432552240696;-0.23462851670908513;-0.23177359068436765;-0.19233048433696087;1.2099283867542108;0.7589004510665016;0.039241541881407827;0.19775965277240726;0.7876413799770416;0.5763537287896012;0.057821597767510724;0.069302692344972;-0.15322188529383407;-0.07417237950332956
A;2.6;-0.32541685510969565;-0.23708464844934785;-0.4212999173227807;-0.23563852227480897;-0.19684927805145325;-0.17980865097663745;1.2919202165222563;0.8083730939733944;0.05695789676676721;0.2008755414639074;0.810806536374534;0.584877089606985;0.057657590018425964;0.05911122592413065;-0.14301825128610002;-0.07750497696784908
A;2.7;-0.3112284386764035;-0.23609662009407195;-0.4150279475525851;-0.2360969152528707;-0.16349570047417572;-0.16792257112489928;1.3648718395095465;0.8510304750134017;0.07444444631327496;0.20388447200773463;0.8329856306980297;0.5927239196652776;0.05950135306494975;0.050350511274822374;-0.13228775759201028;-0.08015387384379613
A;2.8;-0.29537507052000844;-0.23450683557839014;-0.40711529467343066;-0.23594050676768763;-0.13254293676506101;-0.15698407155791294;1.4261799786646925;0.8847402120739543;0.09151208683739842;0.20683097600711964;0.8541177262678161;0.599995312656926;0.06408516135664044;0.043830820752670085;-0.12108020844174128;-0.08197903991128541
A;2.9;-0.2781092812372341;-0.2324114714212353;-0.39776352475315413;-0.2352642975367294;-0.10392416246758795;-0.14698142483812138;1.4767003325048011;0.9102497887836138;0.1081393399763142;0.20972237895964696;0.8742761187374799;0.6067703239385036;0.07117814860937166;0.03933772929625601;-0.10948093315706853;-0.08306207454937464
A;3.0;-0.25964619126026456;-0.2298818932369331;-0.3871411064783574;-0.23414331736108007;-0.07722436652939724;-0.13776308648098645;1.5181499358923587;0.9289292975413432;0.12440842832650656;0.21254229154373228;0.8934988212743198;0.6130247171954024;0.08036896426678108;0.03646316904236535;-0.09749262148725713;-0.083491245874602
A;3.1;-0.2406289370599053;-0.2271908879057376;-0.37579334439550394;-0.23284076048079339;-0.0524731116997188;-0.1293629555690865;1.5521105690341075;0.9422617402382811;0.14019000307993323;0.21532367517272455;0.912026013638477;0.6190579232147599;0.09114062701517511;0.03472035075261015;-0.08541509311347273;-0.08352167179731129
A;3.2;-0.22175868507159358;-0.2246335243231128;-0.3643171478104108;-0.2316443134659174;-0.02957842926843579;-0.12177216746672581;1.580658380154521;0.9521347252079537;0.15537639841352924;0.2180955756165499;0.9301246911797207;0.6251769339682882;0.10283795714165578;0.03347592971534308;-0.07355760310736148;-0.08344229074409348
A;3.3;-0.20286250194408595;-0.22211780940936698;-0.3525467322344715;-0.23046623417120404;-0.008197966450239846;-0.11486055448635923;1.6043626006819938;0.9588257454401541;0.17010523012846956;0.22082691347563;0.9476899584561815;0.631199521330315;0.11541754418558359;0.03268393263767688;-0.06174675632251603;-0.08317085400745494
A;3.4;-0.18372559339407157;-0.21953951276520378;-0.34028050117945075;-0.2292003318861937;0.011871944342199292;-0.10854076562444082;1.6232818953270827;0.9621771441086677;0.18448485704222062;0.22349279848182313;0.9645937566926945;0.6369478795363062;0.12899099155674687;0.03247321554251492;-0.04980922318167469;-0.08260230504044141
A;3.5;-0.16418298539823617;-0.21680041788391602;-0.3273598842342924;-0.22775763840027619;0.03122778433196327;-0.10258523740998626;1.6387110193704824;0.962998960707667;0.1987273758641228;0.22605030013079386;0.9807392211975108;0.6422013581585682;0.14336193571499845;0.032635292967515106;-0.037529364138138455;-0.0816698719750315
A;3.6;-0.1440152071150802;-0.2137798920821492;-0.31358027996046545;-0.22602759789211646;0.050480229758745665;-0.09675951314610032;1.6518528446024887;0.9620062107389873;0.21305838864645033;0.22845275250697838;0.9960090236580124;0.646710001857417;0.1583670486369506;0.03299263754383297;-0.02466381330614542;-0.08028684320755719
A;3.7;-0.12400675184832366;-0.2108336299023863;-0.29961377907515985;-0.22432823674358904;0.06916978162800635;-0.09121943656426623;1.6633475437763188;0.9599130825209214;0.22720715027508298;0.23076735069897758;1.0106691055851962;0.6509125634040762;0.17379318254694898;0.03345403990698781;-0.011641419322749869;-0.0787644967060781
A;3.8;-0.10529277552218641;-0.20847667371542844;-0.2864379827734016;-0.2231239199718429;0.0865764740131807;-0.0862147582167383;1.6739506774897135;0.9576585441282295;0.2407671767037689;0.23309723496589463;1.025127157568038;0.6554746273347769;0.18935484741145814;0.03389979534760279;0.0008960728987306155;-0.07755417516190555
A;3.9;-0.08836612026093338;-0.20694417596414016;-0.27447698027012457;-0.2226212888228254;0.10225065337710859;-0.08190502245989251;1.6836586100611706;0.9553842616478541;0.25351761783658056;0.23549195619556063;1.0395501422183133;0.6606946332977639;0.20500387082856886;0.03437305825159864;0.012650839882199172;-0.07685052369354528
A;4.0;-0.07381103651099341;-0.20651643383195495;-0.2642356015602756;-0.22306669637400045;0.11563106335133533;-0.07848875645704201;1.6923735366201476;0.9531975813021489;0.26518733820355056;0.23801200440643022;1.0541390813687372;0.6669358029338213;0.22069718628837087;0.03493698639213694;0.02326028695114779;-0.07688676369436331
A;4.1;-0.062402214838781056;-0.20752607495984599;-0.2563770241141494;-0.22476470440249408;0.1264801075187334;-0.07603667025097494;1.701311395293295;0.9521992998454092;0.27559260791044604;0.24072280893097808;1.0691941552301336;0.6746263363335254;0.23616585352640218;0.03544681096375424;0.032345247254936815;-0.07796632831680039
A;4.2;-0.05463592992142363;-0.21017528391166707;-0.2513235907678686;-0.2279046033616572;0.13480423958377852;-0.07453557974246916;1.7117131761228135;0.9534058954855555;0.284673315308523;0.2436629597700728;1.084925313603295;0.6840238596004631;0.2511784985875716;0.035755947125700516;0.03969939768784059;-0.08028046569576741
A;4.3;-0.05158311079736144;-0.21493940035355408;-0.24999768534119493;-0.23291589609964358;0.14013908704375222;-0.07412899752715507;1.7248518566245363;0.9580754752181986;0.29211685000105714;0.24692247411613977;1.1017234899032098;0.6957271930635698;0.2653889974699126;0.035682451984346386;0.04475946704789813;-0.08426524097826249
A;4.4;-0.054189113619745655;-0.22223351377378453;-0.25321318861488695;-0.24017616611363746;0.14210740615944673;-0.07493316155344854;1.7419483671923177;0.9673830024179169;0.2976630093596393;0.25058248780249937;1.1199490974937722;0.7102706280822937;0.27848803430653923;0.03506408544225259;0.047035330979383616;-0.09030237975732947
A;4.5;-0.06186408509149999;-0.23180066450747816;-0.2604632064510124;-0.24945541642008529;0.1410198760113337;-0.0768563031926437;1.7625950570875835;0.9808086994505016;0.3015042504405363;0.25459454077485333;1.139419515322814;0.7273193152048618;0.2906326101801744;0.033993461059906416;0.046854912377805036;-0.09815740004840778
A;4.6;-0.07369392907465322;-0.243252036597168;-0.2709640368257933;-0.2604002971583945;0.13727525011317354;-0.07978116160557391;1.7858795226246145;0.9973719211811414;0.30389876781996783;0.2588799849750787;1.1598175898995597;0.7463475085837219;0.30207378094989945;0.03261062825460215;0.04470234442756649;-0.10747735336104824
A;4.7;-0.08858435322369562;-0.25608221082392113;-0.2837696341308451;-0.27256785946948714;0.1315352282215274;-0.08350787528932369;1.8111833144137777;1.0162044998947897;0.3052587692244275;0.2633578219220851;1.180845068121522;0.7667687497561131;0.3131444774559444;0.031118865788117844;0.04120607664634246;-0.11779728201632489
A;4.8;-0.1052176622454919;-0.2696877510358444;-0.297742532101517;-0.2854269436420571;0.12456996790317554;-0.08780295827425988;1.8376729172419168;1.0362087054796625;0.30606489744683696;0.2679281052866287;1.20212690999033;0.7878704736175575;0.3242407231092628;0.02975330268627463;0.03711402081559001;-0.12856376698221839
A;4.9;-0.12336672946185612;-0.2840002022411472;-0.31269434322581535;-0.2989047103385811;0.11640103202381447;-0.0926586346710998;1.8649475898037602;1.0570359761410075;0.30632247842154925;0.27256057136650647;1.2235425144981469;0.8094889815787334;0.3353615588787564;0.028490285322482656;0.03251606570053234;-0.13973012657016337
A;5.0;-0.14301352541616197;-0.2990398281680786;-0.32861580783816446;-0.3130093375515992;0.10695618010260688;-0.09809534972785627;1.8928136335227914;1.0785573582783097;0.30597784237551373;0.2772441189295547;1.2450514367928234;0.8315854485271612;0.34645025264734475;0.027279634280973575;0.027389615789984667;-0.1513316071939217
A;5.1;-0.16362175701404258;-0.3146113850775647;-0.34505797586965503;-0.32755163088537653;0.09637518811339607;-0.10406951371510686;1.920503823935603;1.100064367572219;0.30511294897827845;0.2819202607731963;1.2664145739717831;0.8538150089716599;0.3575871840384597;0.026134632458083118;0.021980926816782542;-0.16320776096482525
A;5.2;-0.18472864897076935;-0.3305542134813164;-0.3616353862805033;-0.34237204585575043;0.08475399572429776;-0.11054937819565325;1.9472863221378385;1.1209036711982705;0.3037801782119729;0.2865352058030437;1.2874110814206188;0.8758706888867454;0.36882446861249196;0.025049487590385944;0.01649204867571097;-0.17523250976878657
A;5.3;-0.20544350428940117;-0.34642492748318254;-0.3775728848002524;-0.3570945163106227;0.07272444044404303;-0.1173441319354156;1.9728665648661554;1.1404904734794363;0.30238254766558637;0.29103884611531683;1.3078810124839975;0.8973329016672156;0.3804902386531941;0.02425600448780152;0.011455622158053735;-0.18699626051526153
A;5.4;-0.22458390428181652;-0.36162526862167343;-0.39184106395347484;-0.3712157048531308;0.06115930255725299;-0.12419156021527922;1.9969477874508508;1.1581074056920717;0.30147971503356885;0.2953690410184233;1.3276298933986688;0.917657232948009;0.3930446879329663;0.02408441987497767;0.007592325855792836;-0.19793918129230192
A;5.5;-0.24174674308930566;-0.3759382215351348;-0.40408343367160615;-0.384554985646278;0.050424941731445294;-0.13097388021688605;2.019571129476289;1.1735978415878567;0.30129197738249935;0.29950720081896254;1.3466224446910111;0.9366717290436597;0.40662948898183693;0.024642554604211497;0.005154855839699657;-0.20787095425370783
A;5.6;-0.2565107549480228;-0.3891283534781591;-0.4139257545613111;-0.3969191059964112;0.040929725785376014;-0.13756045390936045;2.040836413512416;1.186832425085766;0.30206750333420906;0.30343739678059034;1.3648384809723146;0.9542084845099916;0.4214078112030224;0.02605884324544938;0.00441469789372384;-0.21658249958343667
A;5.7;-0.2676893494286334;-0.40063953858647405;-0.4203532845917728;-0.40782859621576506;0.033426092426839915;-0.14372355527364267;2.0601719062164285;1.1969336191807853;0.3042814397685092;0.3070815018214237;1.382003518967851;0.9696687213990209;0.4377754733391104;0.02859068163402867;0.006055293105467818;-0.22356236562361165
A;5.8;-0.2742732785045554;-0.4100185810812347;-0.4225103701005901;-0.4168863582597293;0.028510057721204518;-0.14927933192733178;2.076991153661657;1.2030998315214019;0.30830047073609723;0.3103647920872801;1.397847731238758;0.9825165658140338;0.4560275866666199;0.032413601227693434;0.010639996141968311;-0.22840218806172086
A;5.9;-0.2748828002831303;-0.4165932353494446;-0.41920890964466917;-0.42352030498423243;0.02710194890797535;-0.15395209683785804;2.090697243908414;1.204346379622515;0.31471863842502756;0.3132063780067069;1.412092542629714;0.9920897822667718;0.4766759631762776;0.0378784005448809;0.018979450924323515;-0.23047544518134355
A;6.0;-0.2682377379650269;-0.41974713396461105;-0.40935142855802464;-0.42720436751889324;0.0300496982899352;-0.15748608089180038;2.100735750610635;1.1997636996795404;0.32407753519800764;0.31552843596123736;1.4244688360848459;0.9977643993335397;0.5001789100667411;0.04529363265094144;0.03182131005778288;-0.22921042529390778
A;6.1;-0.25488811561101965;-0.4197651758029517;-0.3934200428141654;-0.4281719631857417;0.037027114523937144;-0.15995538231122897;2.1073939058736118;1.1897948271684462;0.3361168332271811;0.31734967287755556;1.4350612156903297;0.9997706526999317;0.5262147118770093;0.05441291847207097;0.048816761091242;-0.22491332537200304
A;6.2;-0.23588367195410065;-0.4171623892487579;-0.3723221076926313;-0.42685419627401355;0.04741133806708664;-0.1615182443920009;2.1112095283042343;1.1752604001739773;0.3503801154843629;0.3187208869553828;1.4440743875338347;0.9985924212681527;0.5542773914261119;0.06486769718379026;0.06932498295206369;-0.21811199188987107
A;6.3;-0.21213954694023673;-0.41243887628163467;-0.34687674553106795;-0.42366040890428724;0.060596708433242163;-0.16232698407376756;2.112634051255478;1.1568858996146685;0.3664027738545883;0.3196692902014613;1.451616414543852;0.9945887572282759;0.5838355850872228;0.07624364717961907;0.09276415922360481;-0.20932251207225683
A;6.4;-0.18483094169161163;-0.40622303181920394;-0.3181280998754499;-0.4191079582015158;0.07580986993793459;-0.1625807465159328;2.1122339321289867;1.1355869465484405;0.38360545600280904;0.32023565522673625;1.4578445228784194;0.9882397498913775;0.6142465200434355;0.08804661689839577;0.11839593117512326;-0.19918610718429974
A;6.5;-0.15439177831119277;-0.39869414666816905;-0.2864419749525986;-0.41335306426308627;0.09285620079398438;-0.16232088429310387;2.110255432017431;1.111715137570906;0.4018430311699195;0.32045050350157034;1.4628888752028812;0.9797849315255909;0.6453323663794608;0.10015951079175522;0.14595913775373948;-0.18789622094845004
A;6.6;-0.12101096822124902;-0.3899113517114534;-0.2519764190049072;-0.4064519260432071;0.11169864752351;-0.16154572866049932;2.106846138179031;1.0854512210948073;0.4210794378366316;0.32033231730525724;1.4668341385174848;0.9693509302949046;0.6770247511673668;0.1125438358349502;0.1753401338916447;-0.17552634182871518
A;6.7;-0.08553821082467028;-0.38024984437942155;-0.21544907523945334;-0.39872589758835986;0.13189002024615082;-0.160365052682371;2.1024371851577497;1.057447945428808;0.4409968253820793;0.3199350409064765;1.4698993489706158;0.9573797199517609;0.7089749436201167;0.12496341568280922;0.20603084583484943;-0.16246398095508852
A;6.8;-0.04877387621276963;-0.3700547070248268;-0.17753457493023284;-0.39047295448930175;0.15301901090545922;-0.1588800561574093;2.097436073032595;1.0283196954704659;0.4613067955374186;0.31931271748204804;1.4723027660619243;0.9442989232779215;0.7408704395422081;0.13721175858027923;0.23755485258024667;-0.14906439818744932
A;6.9;-0.011273251275689233;-0.35967181458553643;-0.13876793755614525;-0.38197359612710535;0.1746902632338072;-0.15718754596372886;2.092194693015942;0.9985820954647879;0.48168384210059134;0.3184702514397628;1.4740624953304828;0.9302798727228438;0.7723174878792953;0.14896387230987695;0.269541395891415;-0.13568339147584663
A;7.0;0.0263096966372256;-0.3495341651774835;-0.09978810771715718;-0.3735739983126418;0.1964034386513509;-0.15541086053034991;2.0871195762645725;0.9688442137628441;0.5017111825899132;0.3174046055827011;1.475163681614977;0.9154919046018946;0.8028111441494161;0.15979428991818168;0.30154651947870104;-0.12276633652841884
A;7.1;0.06383034964444612;-0.3397584632666488;-0.06077085475903132;-0.3653700937086315;0.21804048624325212;-0.15357631801413074;2.0823479645002125;0.9392935480273019;0.5212768071330016;0.3161111007995485;1.4755839566444886;0.8999538066112147;0.8322016848019453;0.1695698795249596;0.3334541965780531;-0.11043342772163589
A;7.2;0.10118826077024767;-0.3304508702104423;-0.021862281497305958;-0.35744796378726296;0.23949687051566126;-0.15170757993434947;2.0780045099100724;0.9100945759789161;0.5402753614105773;0.31458007431488966;1.4752796161450923;0.8836521818702971;0.8603457447169154;0.17815727844552942;0.3651714235443251;-0.09879230388028803
A;7.3;0.13745477996573197;-0.32213187512487984;0.016098595540894323;-0.350230000299633;0.2601548195892267;-0.14995430044304836;2.0745675637748344;0.8820074342930546;0.558220099802269;0.3128335165588396;1.47433978696179;0.8669338652452216;0.8866727661469547;0.18510346913527886;0.3961026663700258;-0.08838389735679719
A;7.4;0.17172018820119206;-0.3152801182482676;0.05230799425044541;-0.3441080633505855;0.2794405384815386;-0.1484541660147567;2.0724720103856127;0.8557443354567198;0.5746691185093642;0.3109021668708918;1.4728890603824627;0.8501749615481207;0.9106718906924725;0.19001422160782067;0.4256733241068913;-0.07970789393939759
A;7.5;0.20300135465423264;-0.3104756423173711;0.08585480941031687;-0.33955246398664496;0.29666270937367933;-0.14738146713024403;2.0722670971857315;0.8321478430153597;0.5890773961043188;0.3088036016758453;1.4709929010640972;0.8337150753475417;0.9317146632228752;0.19238227725968304;0.4532473593208213;-0.07335521217018348
A;7.6;0.23035938273148204;-0.30826292320768367;0.11587655987385936;-0.3370043764965889;0.3111706075765568;-0.14689802712844457;2.074453879267605;0.812004890217005;0.6009325816690856;0.3065563763469008;1.4687226739069639;0.8178881210044469;0.9492091164877241;0.19173235165743208;0.4782183052308273;-0.06988408383999545
A;7.7;0.25405436421460514;-0.3084382861621453;0.14260590244839388;-0.3363122252930797;0.3232064190842223;-0.14693897775159304;2.078849392328109;0.795075767524795;0.6104384001407865;0.3041753111293719;1.4661306632783373;0.8026750255965363;0.9634016113975203;0.18827974993109642;0.5007492484000826;-0.06908638802190614
A;7.8;0.27471690216296807;-0.31058405593776595;0.16659743229949164;-0.3371562634893843;0.333266962282325;-0.14738004270215388;2.0850981477169137;0.7808349174229603;0.6180043228194805;0.3016717372549875;1.4632494149059099;0.7879336322934072;0.9747883852421317;0.1824417449179414;0.5212384991177252;-0.07052528883198184
A;7.9;0.2927646886905553;-0.31436445286478243;0.1882690166199632;-0.3392735262524891;0.34175141957719823;-0.14810271995700752;2.0928227102203567;0.7688267019910624;0.6239524615822036;0.2990622101287377;1.4601521825337866;0.7736244087254485;0.9837325880206711;0.1745366518496434;0.5399539881714839;-0.07388140639852914
A;8.0;0.3087793080774759;-0.31933958792870243;0.20818892518789944;-0.34231883405050745;0.3491808650018813;-0.1489580549281353;2.101547889773919;0.7584518561277633;0.628704647329358;0.29636350399796196;1.4569115616490078;0.7596618405848323;0.990716565686415;0.16498186737541776;0.5572695542182089;-0.0787278747538207
A;8.1;0.32303907078933225;-0.3253384482132393;0.2265595073815092;-0.34617237736623263;0.3557513660075742;-0.14991122002418145;2.1111999826508687;0.7495480894003994;0.6324387388944546;0.29358704180130424;1.4535514246748804;0.7459922944677664;0.9959937804884564;0.15399063517308953;0.5733564597465124;-0.08485665493158123
A;8.2;0.33566733713053676;-0.33228853511243983;0.24344428777158011;-0.350790610352095;0.36154150980757827;-0.15095589601836235;2.1217874715582234;0.7420817308123566;0.6352357892174147;0.2907432715916318;1.4500949322709977;0.7326051571686913;0.9997019591775711;0.14168009247349023;0.5882858083917268;-0.0921625721896775
A;8.3;0.3472226381848005;-0.33984786568535785;0.2592904967039029;-0.35592148271630997;0.3669434306016299;-0.1520129613981016;2.133089940030367;0.7356618654290701;0.6374401380673147;0.28784434640441425;1.4465583853953055;0.7193617338397766;1.0023021456915346;0.1284353418418549;0.6024094459024099;-0.1002533395737295
A;8.4;0.35824134053280954;-0.34769378995686306;0.274520826403565;-0.3613283905746423;0.3723254053001819;-0.15301127714907814;2.144913733242885;0.7299271460037957;0.6393776345906943;0.28490179054175613;1.442955013390743;0.7061263265153341;1.0042379658530098;0.11462621840990295;0.6160647783183641;-0.1087527993138857
A;8.5;0.3688874586946005;-0.3556373701857538;0.28935581861454285;-0.36685331682209465;0.3779094052405032;-0.15386374724475615;2.156933128785391;0.7245717346313039;0.6412141646508784;0.2819277471091528;1.4393584251195206;0.6929348485663867;1.0056657908385622;0.10040152964683635;0.6293556679807297;-0.11751464503625808
A;8.6;0.37931440984161924;-0.36346136989083266;0.3040475495881605;-0.372309188313654;0.38395025369927094;-0.15445997112442456;2.1687134300574122;0.7192116560527135;0.6431345130947115;0.2789362237323507;1.4358617365387656;0.6798485745775249;1.0067373080138102;0.085913087351285;0.6423820300239509;-0.12639040009709923
A;8.7;0.38945756413388555;-0.3711436704671671;0.31858623680455445;-0.37767216301886286;0.39047176003070483;-0.15477254192806633;2.1801396360760172;0.7137950963785471;0.6451478855769572;0.27593795321635284;1.4325315176152613;0.6669580309342353;1.0074447054992879;0.0711702104256382;0.6551005508416825;-0.13538688582688252
A;8.8;0.39920573435425943;-0.37868304462738145;0.33293387483224723;-0.3829314551557097;0.39747319848051177;-0.1547749002219927;2.191088458830471;0.7082835812208028;0.6472392495855113;0.2729430076772763;1.4294379503134746;0.6543711982842368;1.0077413704574525;0.05615169319713953;0.667438674979361;-0.1445416199885372
A;8.9;0.4089488768405971;-0.3857430431084836;0.34749989456572017;-0.3878210277914569;0.4053305174143089;-0.15435179811262145;2.2011066065784815;0.7021808952366393;0.6497243612615566;0.26997014662268537;1.4266544277288347;0.6420624304604674;1.0079855936557882;0.04117939844169438;0.6796500246968797;-0.15354031774768195
A;9.0;0.41910873235242274;-0.39199086895507396;0.36268710838718654;-0.39208555377493326;0.41440912346266146;-0.15340580633836165;2.209813600637253;0.6950319822381594;0.6529247236032338;0.26703940743011145;1.4242429537813983;0.6299839108280612;1.0085728131612948;0.02660321903080476;0.6920087896031166;-0.16204602474765117
A;9.1;0.4300772964336934;-0.3970695759206686;0.3789481020789571;-0.39543117661011973;0.4251131997046276;-0.1517972819468083;2.216653376239256;0.6862628589113582;0.6571616238699258;0.26416495570476695;1.4222782197438244;0.6181130808348865;1.0098310577402172;0.012722404933827036;0.7047700883464953;-0.16975318886540958
A;9.2;0.442228248925586;-0.400640794230946;0.3967024982959346;-0.3975833680422163;0.43781846726098284;-0.14940152680212648;2.2211161913350526;0.6753420866891919;0.6627439396428514;0.26136301845864196;1.4208323380329966;0.6064291564094342;1.0120897429110034;-0.00016202368366613484;0.7181787286818002;-0.1763622185972098
A;9.3;0.45540018537583116;-0.4028353463776382;0.4157288255093601;-0.3986634048236164;0.4523471687816265;-0.14629541290031778;2.223483414316999;0.6625547280881996;0.6695635447616173;0.25864594614881575;1.4199283133313663;0.594998227203765;1.015309239338137;-0.012077825419049226;0.732130425500749;-0.18194276177303426
A;9.4;0.46926077784626496;-0.40392664108179854;0.4356260528257021;-0.39890477784345446;0.46835875458910703;-0.14260509971108792;2.2242326439792928;0.6484046514074682;0.6773760468118102;0.25602017109911923;1.4195698538044468;0.583911525265767;1.0193019866952175;-0.02318278165108012;0.7464084389716863;-0.18669451045503394
A;9.5;0.4835767736527705;-0.4041133695087149;0.4560366420775157;-0.3985049008645145;0.48556759673746974;-0.13846804390408174;2.2238312650498324;0.6333475264184001;0.6860344764347239;0.25350968730611356;1.4197766395402187;0.5732487819679797;1.0240524571782954;-0.03348078550812872;0.7608686020493769;-0.19070103890446521
A;9.6;0.49804479143336966;-0.40365815540105743;0.4765170786112547;-0.3977151068196392;0.5036117117366734;-0.13405016757448251;2.2228567388269758;0.6179506302474547;0.6953349966661593;0.2511376898578588;1.420559706679232;0.5630989079948905;1.0294962440220718;-0.04301941464707859;0.7753211365959016;-0.19409501580020017
A;9.7;0.512503020262292;-0.4026861337546892;0.4969080620505304;-0.3966273629034438;0.5223323759119953;-0.12939381988798537;2.2214573676274796;0.6024011643323215;0.7051453955490512;0.24889985458493324;1.421915299892912;0.5535032443637502;1.0354916390560094;-0.05191307971575654;0.789658781455894;-0.19699022137997346
A;9.8;0.5268543967383996;-0.4012614304722826;0.5171293394072025;-0.3952828059178568;0.5416364583372193;-0.12451724148028731;2.219668470988537;0.586775567422789;0.7153880719423649;0.2467930625584076;1.4238430695092665;0.5444904185134338;1.041944307987027;-0.06023147568527243;0.803818345827823;-0.1994523118932534
A;9.9;0.5408181478275402;-0.39961862249356006;0.5368895463761465;-0.39386000967637;0.5612463478616174;-0.1195019858552282;2.2178154228241094;0.5714412286972039;0.7258272042302938;0.24480803529060768;1.4263263112818123;0.5361198425146672;1.048610656740654;-0.06818241291859906;0.8176120650643783;-0.20168954943694128
A;10.0;0.5541262733353767;-0.3979808414593604;0.5559191787320454;-0.39252510584525435;0.5808970838723795;-0.11442178142775017;2.2161866421691454;0.556733148598771;0.7362337987434211;0.24293345595580362;1.4293433565264273;0.5284428279369915;1.055242648260788;-0.07597654926263875;0.8308608304102822;-0.20390670373409403
A;10.1;0.5666357621641263;-0.3964513994299601;0.573948962039263;-0.39140819875195554;0.600376921259528;-0.10939841125700855;2.215091237763643;0.542954065541617;0.7465594515051324;0.2412042647350967;1.4329178572091013;0.5215214027457256;1.0619433688063253;-0.08350137006453018;0.8434900138867949;-0.2060901368154937
A;10.2;0.5781994105887911;-0.3951396190573835;0.5906562399473909;-0.3906640393370866;0.619446905866817;-0.10458579059431283;2.2149334065277935;0.5304788498630968;0.7567731696550535;0.23966887479110888;1.4370871943577668;0.515431740914861;1.0688960753129368;-0.0905729990559978;0.8554272927907771;-0.20819114091654356
A;10.3;0.5887954043618482;-0.3940453081762936;0.605943434180654;-0.3903227695333715;0.6380179235499446;-0.10004650564312279;2.2157748653016522;0.5193773979085439;0.7669036658425981;0.2383528599490008;1.4418591780056802;0.5101887336855686;1.0762233726224864;-0.09705833405945263;0.8666773324136576;-0.21013951575651912
A;10.4;0.5984195794378415;-0.39315125403860307;0.6197206634443564;-0.39040610349150473;0.6560101871577206;-0.09584571488509219;2.217664170615479;0.5097032427398385;0.7770012508986301;0.23728591470737737;1.4472429396167876;0.5058042125161908;1.0840831948618543;-0.1027907142341622;0.8772588211586045;-0.21184068882003704
A;10.5;0.6068527540217401;-0.3926520291320825;0.6316329797312088;-0.3911121367884425;0.673137242238262;-0.09213077007416537;2.2210980904048645;0.5019229975397859;0.7869278085103524;0.236494981415162;1.4532587587269155;0.5023573851374117;1.092499107225505;-0.10774125888226482;0.8870379327846738;-0.21336007915773259
A;10.6;0.6138827052893925;-0.3927456585682165;0.6413690322820322;-0.3926242374708506;0.6891325329704117;-0.08902486240163032;2.2265254658886806;0.49646278800500765;0.7965224351762439;0.23599383669627905;1.459913400144342;0.4999124451769741;1.1014245963873952;-0.1119477067026633;0.8958791527529062;-0.2147972812331993
A;10.7;0.6192695580107896;-0.39363213326976165;0.6485160088040622;-0.3951623690076582;0.7036708511671188;-0.08670509804467574;2.234487567916333;0.4938346061780159;0.8056603226248251;0.23582180027723254;1.4672276682104548;0.49855574195949126;1.110938952366296;-0.11532315216214695;0.9036421848840686;-0.21619314395906564
A;10.8;0.622797107304069;-0.3955004378865832;0.6527023585492913;-0.3989288496891392;0.7164553518490804;-0.08533170578453486;2.2454943555400453;0.49451507270473627;0.8142172211665022;0.23601165630778276;1.4752180717881327;0.49836370098903204;1.12110286023512;-0.1178013248130263;0.9101975930651856;-0.2175929242489083
A;10.9;0.6245729863065961;-0.39827003821259055;0.6541135043867188;-0.4038215778070242;0.727562774031508;-0.08484305124897773;2.259243313453723;0.4982453918437453;0.8222200451625516;0.23654025200999573;1.4838312686209645;0.4992581884373717;1.1318420355248255;-0.11943349062368736;0.9156153189917937;-0.21898057419960715
A;11.0;0.624791106262883;-0.40177599914144224;0.6530761221439816;-0.4096530033619734;0.7371634543663852;-0.08512375192923205;2.2751829515112494;0.5045505986610861;0.8297526117210392;0.2373742753510939;1.4929895557333768;0.5011153584717318;1.1430680720459785;-0.12027474313463937;0.9200227073506166;-0.22030692036598776
A;11.1;0.6236533545418004;-0.40589923376625503;0.6499383060497239;-0.4162547167835795;0.7454531927169619;-0.08604410585169564;2.292918847512979;0.513052787054014;0.8368397006014732;0.23846453547363566;1.5026341425809255;0.5038286914550052;1.1546361281899573;-0.12046055337473405;0.9235300920498926;-0.22157587476288843
A;11.2;0.6214078242859404;-0.4104836543970558;0.6451283624103636;-0.42341547107105626;0.752680840781994;-0.08744250330555836;2.3119423618743857;0.5232698986240667;0.8435260057627714;0.23975321297743957;1.5126948995909133;0.5072681256834843;1.1663790740575548;-0.12014660424284607;0.9262761488728151;-0.22278481926377847
A;11.3;0.6181193935206162;-0.4154461535635203;0.6387526837045092;-0.43105316920881975;0.7588622494151132;-0.08929293184337794;2.331929674430586;0.534956725821909;0.8498596169939958;0.24123351795913894;1.5230989322515203;0.5113531112943379;1.178275862951562;-0.11931151429720366;0.9283137305535272;-0.22388991892053323
A;11.4;0.6138181800840412;-0.4207372009392669;0.6308530491721793;-0.43912289990201714;0.7639740121640752;-0.0915954035014126;2.3526731432391723;0.5479667563867139;0.855868369087184;0.24290476374060432;1.5337828518007242;0.5160235646915767;1.1903257454274856;-0.11791824556292507;0.9296705211781475;-0.2248549727243372
A;11.5;0.6086364489392047;-0.42621002793413965;0.6216508988767222;-0.4474761038589099;0.7681034804598177;-0.09428034033256871;2.3736437702993807;0.5618768318982243;0.8616447230265774;0.24475090255329324;1.5446546149875258;0.5211584455559972;1.2024858879392308;-0.1159614402327378;0.9304498077528551;-0.22561521211418611
A;11.6;0.6026953173918885;-0.43172368463584654;0.611348598377182;-0.4559725491380968;0.7713257130717546;-0.09728564150471541;2.3943303007204806;0.5762823794939638;0.8672786087448676;0.2467582715199228;1.5556207552687324;0.5266399529802723;1.2147205629380773;-0.1134269436234403;0.9307471462475938;-0.2261058411307575
A;11.7;0.5961903457331443;-0.4372077473784879;0.600258921608658;-0.46448466818469125;0.7738366584470722;-0.10049631699639683;2.414568181542178;0.5909632169185794;0.8727526632595115;0.2488752931681697;1.5666459076453272;0.5323925678049415;1.2269028296501006;-0.11045860668783547;0.9306468285736793;-0.22635432242570452
A;11.8;0.5893687288681999;-0.4425893890218937;0.5887787098869737;-0.4728622115957135;0.7758992615648586;-0.10376229127823855;2.4342168001074906;0.6056824868337145;0.8780338100148217;0.25103416766002695;1.5777072796307197;0.53833673712544;1.2388642181838678;-0.10726239619187528;0.9302534602337795;-0.22641031796287336
A;11.9;0.5823284395942494;-0.4478566983743848;0.5770626911861463;-0.4810512431949716;0.7776020025670807;-0.10702901518064944;2.4532699127234423;0.6203842503280272;0.8830729741929311;0.2532010431526288;1.588768848106776;0.5444302922455635;1.2505174039395701;-0.10393136607954645;0.9295878261207013;-0.22631105332063584
A;12.0;0.5751734501308894;-0.4530073692719032;0.5652729359583821;-0.48900191180912334;0.7790457867192258;-0.11023786635551946;2.4717700594790504;0.6350409234760122;0.8878093283028177;0.25533871458720636;1.5998025153746833;0.550638180030544;1.2617694914756417;-0.10057275588416026;0.9286676584861047;-0.22610373457915944
A;12.1;0.5681446749832153;-0.4579203873122406;0.5538063620088742;-0.4965375135189678;0.7804664084445339;-0.11324455324233274;2.4893500872410064;0.649265431473375;0.892273750947429;0.25739101793259334;1.6107586596349595;0.5568433098173737;1.2724725909713115;-0.09734892588353361;0.9276320476411293;-0.22579702758814424
A;12.2;0.5614427144057537;-0.4624730753630475;0.5430006607521651;-0.5034952837693423;0.7820464222577792;-0.11592957431477302;2.5055918879114123;0.662660255523094;0.8965139244889349;0.2593137238703749;1.6215734880514174;0.5629239205762082;1.2825017274276185;-0.09438202044928978;0.9266101199462797;-0.22538401745815317
A;12.3;0.555365957053338;-0.46654014037499714;0.5333359507413604;-0.5096763519774044;0.7841038847232156;-0.11811300232415434;2.520191507285738;0.6748451538620017;0.90054831752862;0.26103634666227826;1.6322193247015624;0.5687717268132642;1.2916908960299818;-0.0918787574396811;0.9257569062103865;-0.22488916671303905
A;12.4;0.5501845652273394;-0.4700037480373549;0.5252509957148321;-0.514897095465014;0.7869214777102984;-0.1196319130186616;2.5328386732512445;0.6854509729083076;0.9044005883657285;0.26249538448659226;1.642665804628971;0.5742797118156151;1.2998853168604017;-0.09002898003335957;0.9252206439838577;-0.2243329576669968
A;12.5;0.5457916331232537;-0.47289911732964374;0.5185885013457767;-0.5192097122948214;0.7903422706081003;-0.12055587415343894;2.5435227658544206;0.6945384211155936;0.9080444914297328;0.26370784354284016;1.652839086320851;0.5794253106847647;1.3071014109719084;-0.08876440715250222;0.9249365672430034;-0.22371712826687418
A;12.6;0.5419947214502834;-0.4753081808471782;0.5130484377933691;-0.5227293727274382;0.794121033570331;-0.12100790445213594;2.552381046021481;0.7023194769146901;0.9114300534224462;0.2647085442179211;1.6626676747620324;0.5842230581988104;1.3134062394756123;-0.08795514333681176;0.9247788029978636;-0.22304516538455577
A;12.7;0.5385686760448936;-0.47729403152677374;0.5083023445459913;-0.5255693681872327;0.7979444031941885;-0.12112980629664971;2.559345717235327;0.7088812967985096;0.9145567513732944;0.26554397820264786;1.6720632692843307;0.5886486409981133;1.318857371816506;-0.08746469902370979;0.9246610527538301;-0.22229914549883212
A;12.8;0.5352349799576421;-0.47894092675012256;0.5039377562517622;-0.5278762648307396;0.8014380456090189;-0.12109586460270005;2.5643901407661835;0.714370571731556;0.9174180765565048;0.2662721193713464;1.6809316896311384;0.5926896184730324;1.3235370035598617;-0.08712022343850645;0.92446724043619;-0.2214585685675221
A;12.9;0.5319726117062498;-0.48028224039437806;0.49990719674288187;-0.5296781432121325;0.8045851756874702;-0.12092595861112887;2.567681472184975;0.7189135187895896;0.9199737266225814;0.266893709061101;1.6892560933177032;0.5963654196352985;1.3274759485029382;-0.08689128189380924;0.9241475925030151;-0.22054056987513349
A;13.0;0.5288091301719051;-0.48133374804444085;0.4962391509598607;-0.5309760199028171;0.8074277919502171;-0.12061081034454446;2.5693571642948765;0.7225842516250585;0.9221968681018451;0.26740084093211003;1.6970368023700269;0.5996894728745819;1.3306899710211777;-0.08678189318110086;0.9236877927211653;-0.219563319312841
A;13.1;0.5256472704690154;-0.48216293000171095;0.4927647108976272;-0.5318460683053372;0.8098666132789925;-0.12021464616354294;2.5696718997270898;0.7256167448175033;0.9240201485198574;0.26780699543613284;1.7042367421591271;0.6026987604236558;1.333236581641911;-0.08671121306964125;0.922976343459859;-0.21854830021008365
A;13.2;0.5224080974320584;-0.4828341698292906;0.4893397906304715;-0.5323579977292141;0.8118298312385459;-0.11979141970598928;2.5688998226000077;0.7282455760123878;0.9253797787561933;0.26812316106345335;1.7108325509164153;0.6054365903692256;1.335176697256225;-0.08660686926336858;0.9219116773470644;-0.21751747209264138
A;13.3;0.5189035725563267;-0.48339217683943314;0.4857026649815337;-0.5326062209594671;0.8130439454446821;-0.11946132128984033;2.5668835137930435;0.730461510300334;0.9263261811349341;0.26839517132537605;1.716777880970264;0.6078680137899455;1.3365612097403323;-0.08637603731060484;0.9204825828626886;-0.21644517055328283
A;13.4;0.5148733523259539;-0.48388798553912604;0.481498045636771;-0.5327117671964423;0.813126034006749;-0.11938602589721903;2.5633416509034976;0.7322126807598028;0.9269293768741633;0.2686843644999328;1.7219958087231266;0.6099317695873849;1.3374387175065507;-0.08589812408279496;0.9186733768449988;-0.215294047944675
A;13.5;0.5102559652556531;-0.4843327212555808;0.4766438300635505;-0.532710675371515;0.8119751121205256;-0.11961355103578608;2.5581678084401087;0.7334432759356146;0.9272603421950194;0.26901631935655335;1.7265033999294634;0.6116118714361183;1.3378584343709576;-0.08514145147354313;0.9165390626227765;-0.21403980610984874
A;13.6;0.5049837087177229;-0.4847348661043567;0.47105230608856274;-0.5326407326060787;0.8094779195673212;-0.12019599891662036;2.551217946229749;0.7340727002414602;0.9274051434756787;0.2694200323877185;1.7303223738064568;0.6128870758532567;1.337871510094394;-0.08407497444283774;0.9141490575767133;-0.2126529186258228
A;13.7;0.4987996111241646;-0.48516177140442274;0.4643597115881768;-0.532626889734038;0.805283497217613;-0.12128632906337877;2.5423706734780733;0.7341691204069578;0.9273580686966083;0.26994333681014737;1.7333365277749686;0.6137124950783863;1.3375113551579831;-0.08256952965866571;0.9114022630344998;-0.21112496116703205
A;13.8;0.49149568724037795;-0.4856763914906228;0.45626448124467256;-0.5327747793514943;0.7991196074519813;-0.12300749758785745;2.531602381554893;0.7338418171294214;0.9270879058044947;0.2706210927777857;1.7354388623825203;0.6140605460024107;1.33680798007408;-0.08051225114873883;0.9081846755390108;-0.20945961039233563
A;13.9;0.4827552649457001;-0.48635729408429107;0.4463208988828731;-0.5332418710601088;0.7905501943366362;-0.12555020669716033;2.518719727299861;0.733136780124465;0.9266267642169081;0.27151984487551584;1.7365244551552184;0.6138807252029115;1.3358184191555225;-0.07775045032722439;0.9044157024269284;-0.2076323707625667
A;14.0;0.47228994944333014;-0.48727572170006805;0.43412292965032684;-0.5341698393981655;0.7791808716360116;-0.12908627176621756;2.5035540255843465;0.7321034665689625;0.9259909774092314;0.2726971792761077;1.736482012541716;0.6131223774099483;1.3345868305140618;-0.074144579735413;0.9000064710059696;-0.20562653092447292
A;14.1;0.4602932409907572;-0.4884010105854939;0.41992627281126627;-0.5354893599136252;0.765297033244555;-0.13351272526527413;2.486343254353427;0.7307731724070505;0.9251982239493461;0.2741240887264693;1.7354186120121466;0.6118418282729321;1.3331588983110603;-0.06976142930144036;0.8950339773137461;-0.2034528052774771
A;14.2;0.44708125927657605;-0.4896774724484567;0.4041536830582002;-0.5370840455976227;0.7493568498026475;-0.13866022325037797;2.467423459342349;0.7291610515648452;0.9242955283591714;0.2757560816967679;1.7335300446777948;0.6101314798614892;1.331602367495071;-0.064720940709587;0.8896494328971007;-0.20111911726799292
A;14.3;0.4329562190847023;-0.4910427546985723;0.38721758729757827;-0.5388155074996508;0.731800805763144;-0.14434997014990625;2.4471057625427175;0.7273038266848029;0.9232179159065428;0.2775238443281678;1.730866121678338;0.6080322618090741;1.3298885753768985;-0.059143714970139705;0.883875768131845;-0.19867383859962207
A;14.4;0.4182881431926333;-0.4924205408162532;0.369622987988083;-0.5405162223459339;0.7131663784344653;-0.15036434893933315;2.4257629557399354;0.725238711746869;0.9218998467594792;0.2793458118669001;1.7275082108549842;0.6056014538035077;1.3279895009830982;-0.053179258186225375;0.8777580154126978;-0.1961694583211564
A;14.5;0.40320473408805313;-0.49380011486361663;0.3515279841870651;-0.5421699137197633;0.6936520127825476;-0.1566480012631164;2.403589222717685;0.7229831796944302;0.9204422142935744;0.2812242406683385;1.7236378684142522;0.6029125329097318;1.3260201904247868;-0.04686819854528235;0.8714421747386876;-0.1935862564565527
A;14.6;0.3877655775332558;-0.4951822856129402;0.33299937231657406;-0.543786699296045;0.6733598844491935;-0.163181696370577;2.3807069136617165;0.7205501358824713;0.9189357594358292;0.28317045484886094;1.7193892187008848;0.6000142154895736;1.3240818662010447;-0.040226280671807224;0.8650403884080609;-0.1909055365101322
A;14.7;0.37220723010893497;-0.496537672653413;0.31434064638024406;-0.5453108614065458;0.6526438402072312;-0.16985315838855808;2.3574214783933205;0.7179591178844853;0.9175086223914057;0.28517453316825936;1.7150339488541866;0.5970243202333005;1.3223175914771756;-0.033335908670506065;0.8587642654384418;-0.18810190936439497
A;14.8;0.3567462226911555;-0.49784119441787134;0.2958274886258758;-0.5466974989794897;0.6318306283767985;-0.17656164536439878;2.33402033618699;0.7152276788444558;0.9162946243425543;0.28723124130783795;1.710841382619395;0.5940568251222467;1.3208738847797648;-0.02627290942160254;0.8528251877268218;-0.18514783962011094
A;14.9;0.3415858880832241;-0.4990343824096506;0.2777504488167333;-0.5478242950947969;0.6112196141955737;-0.18316645139915;2.3106571254369817;0.7123696798890498;0.9151420726900703;0.28926466142911167;1.7066900897259691;0.5910706549779396;1.319623001794974;-0.019136548467701964;0.8471189831573591;-0.1821220331003408
A;15.0;0.3269774889119299;-0.5000403366254202;0.26047374420282754;-0.5485252495024193;0.5911756542643429;-0.18948767855923432;2.2875036526012984;0.7094044940139401;0.9138204746769647;0.2911708572834284;1.7023792466891556;0.5880006566098941;1.3183653122022552;-0.01205069961928995;0.8414707651191256;-0.17913318803072897
A;15.1;0.31298535827686624;-0.5008328657480279;0.24409381650176076;-0.5487511907413065;0.5718074170502838;-0.19546629217620382;2.264604142635343;0.706345396047547;0.9122105202158144;0.29290603597525244;1.6977657011385108;0.5847831068909688;1.3169996285257186;-0.005061037123500256;0.8357663996984988;-0.17624505648230482
A;15.2;0.29966386415788193;-0.5013831860020659;0.22869767922960627;-0.548447727197968;0.5532079830966232;-0.20104323017628278;2.241975056337912;0.7032019743497435;0.9101602309487058;0.29441954621563937;1.6926572195809133;0.5813331003048035;1.315390653258536;0.0017854191227968386;0.8298534710663246;-0.17353334445453594
A;15.3;0.28732682694701417;-0.5016233458758039;0.21471606324018744;-0.5474630193240353;0.5358364221777414;-0.2060287197718429;2.2199319894470877;0.7000164981509336;0.9075758776299097;0.2956331858373993;1.6870814942128631;0.5776923287891846;1.3134791768770055;0.008360417150538701;0.823724715454861;-0.17105328100640804
A;15.4;0.2762665442645149;-0.5015010671939661;0.20254014076365756;-0.5456784522082989;0.5201260991023071;-0.2102579113205083;2.198816157688773;0.6968403786483255;0.9044393716673724;0.2964923510706843;1.6811630022453194;0.5739418394424485;1.3112814416653302;0.014553038041293043;0.8174477049372122;-0.16883048496065722
A;15.5;0.2668171520927425;-0.5009276856823304;0.192643450408438;-0.5429017331774793;0.5065557032791181;-0.21351218019106444;2.1788827381580567;0.6936909059505885;0.9005575808973898;0.29688824102414646;1.6747973460102474;0.5700647126564395;1.3086286209615876;0.020207120462460537;0.8109171807278983;-0.1669592219390159
A;15.6;0.25929628595633236;-0.4998250342720496;0.18547096243511607;-0.5389601653181781;0.49558263834202165;-0.21558966883291308;2.1604026410662507;0.6905958976641728;0.895774878348182;0.2967253373859471;1.6679298828289486;0.5660674480798926;1.3053913080797521;0.025179441763236277;0.8040627943224559;-0.1655171277937466
A;15.7;0.253579923703529;-0.4982413388394793;0.18082923637330595;-0.5339665092207779;0.4870660917632996;-0.21657745892660696;2.1433886431986786;0.6875913402647051;0.8902173203818453;0.2960563459404879;1.6606755393561423;0.5619780425364804;1.3017043070009082;0.029519657426018142;0.7969765614755646;-0.16446934332596186
A;15.8;0.24940639266164766;-0.49625201003139097;0.17833683523863986;-0.5281012089276853;0.4806711706413731;-0.21664089570579037;2.127710038883836;0.6846914006701983;0.8840340979670511;0.2949620004837472;1.6531058664536387;0.5577844748488556;1.2977091265746497;0.03332174903347962;0.7897341217576921;-0.16377173885713603
A;15.9;0.2466036079075895;-0.49394910102390366;0.17770587408499683;-0.5215546825528365;0.4761991400962078;-0.21592957285115322;2.1134890520777256;0.6819887224166936;0.8775247586177102;0.2935522282805474;1.6455797105668233;0.5536342772121605;1.2937301674316464;0.03669046719715219;0.7825961943000692;-0.16331262457148998
A;16.0;0.24493669546784425;-0.4914428175202774;0.17855767231698216;-0.5145581831992851;0.473366281243611;-0.21463423716705066;2.100811501921288;0.6795771396331105;0.8710298817261553;0.2919583038545328;1.6384822130776053;0.5496791811296395;1.2901298620959318;0.039757763427727966;0.7758477998614026;-0.1629637188989319
A;16.1;0.24426301834525255;-0.48874862298931365;0.1807068811627186;-0.5071704479073942;0.47197705601468787;-0.21281946633897597;2.0894684555460254;0.6774071298834752;0.864491211754534;0.2901835171711502;1.6316434380134002;0.5458047643057871;1.2868150167950114;0.042528126833037305;0.7693876038155292;-0.1627618357139573
A;16.2;0.24450142609317638;-0.4858659863486716;0.18405651406302947;-0.499410760240659;0.4719147763399425;-0.2105122859525368;2.0792867507402035;0.6754286599606907;0.8578137958323859;0.2882116049964125;1.6248783781318321;0.5419009006998627;1.2836554784302967;0.04497954950667982;0.7630956661455359;-0.16275508419458262
A;16.3;0.24539420420863944;-0.482835491768391;0.18826098443140804;-0.49140134575172034;0.4728326576674613;-0.20784220743782456;2.069964576192916;0.6735849091622037;0.8509780689438431;0.2860744788964178;1.6180057300083248;0.5378287057182272;1.280591820001713;0.04715964052274835;0.756874501031688;-0.16296908948901656
A;16.4;0.24669166559352806;-0.4796911524879617;0.1929907052286275;-0.4832509403443437;0.474388499929308;-0.20493042312107157;2.0611759126458216;0.6718067206397622;0.843936409816207;0.2837949061898568;1.6108084455312557;0.5334337831648965;1.2775294250880078;0.04910564249737792;0.7506011705653997;-0.16343893512729846
A;16.5;0.24833833488544155;-0.4765162513835577;0.19810885209585916;-0.4751041994347016;0.47653300887053707;-0.20187800123852728;2.0532031715125614;0.6702263624773797;0.8370106370300512;0.2814731210236099;1.6037707581844518;0.5289579891271292;1.274824849043764;0.050896362275987705;0.7445991087180737;-0.16402756861007273
