Condicao;Tempo_s;Ch1_HbO;Ch1_HbR;Ch2_HbO;Ch2_HbR;Ch3_HbO;Ch3_HbR;Ch5_HbO;Ch5_HbR
A;-20.0;0.18149981906303067;1.121017718532019;-0.9014592654332215;0.5567416342787269;4.097950264687592;2.5272786942463195;6.260665715240402;10.19410439076257
A;-19.9;0.17401806642833031;1.1207908874664099;-0.8351096309086491;0.571399964227345;4.143817622107812;2.5257914698389694;6.460721125840121;10.283071977996057
A;-19.8;0.16920860742797364;1.118921130593925;-0.772440881125246;0.5798352941548693;4.1873262549456625;2.5290105514623744;6.6551273543369005;10.337016050911624
A;-19.7;0.16765344481817804;1.1156178970026742;-0.7115059806948466;0.5831770067579657;4.227429993861107;2.535601517134812;6.842638560231193;10.341113075837612
A;-19.6;0.16976993764494233;1.1110371345805827;-0.6512589985566298;0.5833754456216899;4.263973189221946;2.544532067174102;7.025171730126957;10.30541544893592
A;-19.5;0.17586608664469194;1.1052999452978503;-0.5911879199596078;0.5815000268963814;4.296793213039209;2.5583518278038917;7.203216193012949;10.233531592597057
A;-19.4;0.18595165919553228;1.0985632998572485;-0.5294310327783144;0.5814653899444662;4.326423935404569;2.570057622270364;7.356829400554301;10.163731261668246
A;-19.3;0.19984653386775367;1.0909016340914068;-0.46427074609303154;0.5874632268785782;4.355178247576094;2.5703522524582616;7.466051445879843;10.153558048721294
A;-19.2;0.2174162049804429;1.0822663366619023;-0.3960611484734966;0.5971421836065588;4.383695243037347;2.5739357793009523;7.530076382792667;10.184641362930938
A;-19.1;0.23847510713648493;1.0725596577976075;-0.3256880631661237;0.6058641626379343;4.40331945288285;2.5785725283194316;7.549638072021909;10.12398114779072
A;-19.0;0.2626616861667143;1.0614556886892172;-0.25414962238890787;0.6113489998033662;4.412591261671397;2.5749253776094574;7.606695251509571;10.01571773163757
A;-18.9;0.28957094886076523;1.0486217282298707;-0.18273283965726286;0.6134108763390936;4.446924662109893;2.6183842795290055;7.728341218927048;9.93959940473765
A;-18.8;0.318887162568848;1.0339059608736283;-0.11194342390280661;0.6089071871385676;4.444352685233036;2.68755727557078;8.115574317111626;9.432640318833508
A;-18.7;0.3502395801701927;1.0172581906133364;-0.04187074110386391;0.5937958704896898;4.419058748968747;2.474984080625807;8.146960891004134;9.021474398580661
A;-18.6;0.3832782282409702;0.998875850449703;0.027063247286844543;0.5761986080165471;4.420196649949287;2.4953164371923835;7.86635649633206;8.955352264767553
A;-18.5;0.4176253937829519;0.9788083412343141;0.09453594503943556;0.5648168613285359;4.437463416706648;2.6708064480767972;7.7627532384858;8.621624464362336
A;-18.4;0.45261962342577666;0.9572913396224253;0.16102317610797565;0.5585346376507996;4.418182890558221;2.6065020733722113;7.9285309625850795;8.34169873148461
A;-18.3;0.4875373404614011;0.9343750393931846;0.2271121588070675;0.5568224586482678;4.390525559976767;2.558789196434111;7.996035489134841;8.313270609981886
A;-18.2;0.5217206791962075;0.9088421956430949;0.29295378982454795;0.5435662173408815;4.346706161255785;2.5063789628623385;8.056320925984013;8.301803262672552
A;-18.1;0.554582197116981;0.8807664210934929;0.35863809900910243;0.5350456486913391;4.318292600435747;2.456150605671725;8.050264827605941;8.256419252010625
A;-18.0;0.5856948535282309;0.8494195329197085;0.4238526243005493;0.5223958833116434;4.295328837971662;2.4337495615770437;8.009489040155753;8.199895521048097
A;-17.9;0.6147765111843667;0.8119877518508295;0.4880450511113732;0.5001500144354174;4.255823625444891;2.42390836770315;7.984153086455393;8.173846886279915
A;-17.8;0.6417788995693701;0.7746586179622467;0.5510566057142142;0.47847394896753076;4.217348297868806;2.4175188745245264;7.96880116131397;8.160401368675975
A;-17.7;0.6668486764569943;0.7441705247796181;0.6126680588353696;0.46891544755363707;4.210793390944725;2.39533630400146;7.9512676819339525;8.129897679294746
A;-17.6;0.6901720959019743;0.7131530434151516;0.672344514309755;0.45572239939886733;4.207228130509793;2.362059166905748;7.934823435782294;8.081895195073379
A;-17.5;0.7120028946845638;0.679377223588507;0.729977246445951;0.4414416598761215;4.167842276397697;2.3212627105888095;7.920563500553178;8.009976636236045
A;-17.4;0.7328103910630466;0.6388237371018773;0.7851339576397467;0.4132836561357774;4.104545852263509;2.278781965957978;7.903893976988169;7.933806265867594
A;-17.3;0.7530972940803617;0.5708472945542971;0.8358952390911577;0.3400688267613822;4.079617423426346;2.264504118630114;7.880084802487649;7.88253484025097
A;-17.2;0.7732029845287749;0.516191828349425;0.8856970948589562;0.3229293811096774;4.070075186098397;2.2257332056858994;7.848959514110855;7.848182637617786
A;-17.1;0.7934814070743084;0.4892596555533286;0.9315335120234637;0.3538335045656966;4.052023644764099;2.2053542808223754;7.811560166263832;7.815171497416535
A;-17.0;0.8141488288236115;0.4762817378624244;0.9743928915984159;0.37863428783150194;4.032090885673301;2.183045247056271;7.768698540763913;7.786287768626843
A;-16.9;0.8352984175361792;0.4412613105874357;1.0136908211704088;0.3735342304580824;4.01937253826474;2.1619023342756636;7.721532070077113;7.764168138793745
A;-16.8;0.8573699875746494;0.39763582424995797;1.0489335670501607;0.3422734238423977;4.011313262737055;2.1414814565977185;7.670967816750366;7.747276003453695
A;-16.7;0.8807839324571383;0.3655106711270297;1.0794314177358393;0.3200686722386458;4.005229008772113;2.1231983335116333;7.617781502660866;7.734602220720685
A;-16.6;0.9055160779284472;0.3399202638245408;1.105156644745628;0.3029835615353771;4.001135150795059;2.1066725455980353;7.561464447120657;7.722738335737451
A;-16.5;0.9314536496467971;0.3140635046812843;1.126293621015092;0.2873594883033075;3.9987318678458457;2.091124116823543;7.501306206303507;7.707880876284374
A;-16.4;0.9583207416089313;0.2891321882683255;1.142654914261525;0.27383372951429213;3.9969590649829985;2.075920587649122;7.437404196312035;7.687578366705609
A;-16.3;0.9857220889197652;0.2660921533962002;1.1542035564298112;0.2607272343758356;3.99487083244262;2.060289834908601;7.369754800023929;7.659822437063739
A;-16.2;1.0135792848206717;0.24359333724495377;1.1611044193067368;0.24660937280332806;3.9917752574213288;2.043843992302803;7.299511944658971;7.624934413941017
A;-16.1;1.0418473478183765;0.22043292363641895;1.1635852678979566;0.23020929595277448;3.9871614746179866;2.0263939430758584;7.228298635469836;7.584458757387746
A;-16.0;1.0702849806199441;0.19682820877095786;1.1624567505537355;0.21197149810260285;3.981065767231275;2.0080031532199114;7.155874132900627;7.539178280695943
A;-15.9;1.0986784374322607;0.17323230546305682;1.158709263804038;0.19296872513322047;3.9737057751398552;1.988894331219383;7.081909884378689;7.490467637257223
A;-15.8;1.1266972296032873;0.1499167085702012;1.152922245300205;0.17374053755589966;3.965388421902203;1.9693039294830381;7.007050651812541;7.440210725988853
A;-15.7;1.1539243518701854;0.1272200284497158;1.1456948485427267;0.15496594047644688;3.9563147863226624;1.9494286950183832;6.931704579723999;7.389905538756897
A;-15.6;1.1802749656552582;0.10507546446409677;1.137588411478518;0.13676076733058048;3.9462917255069443;1.9293456260362696;6.857408791439959;7.342470857656249
A;-15.5;1.2056482209495065;0.08324907782923201;1.1290440000974913;0.11903791253224494;3.9350347132502566;1.9090670717784224;6.786009748080409;7.300733527313779
A;-15.4;1.2296475031607637;0.061579276820675766;1.1209097185577537;0.10217401042105712;3.9216365390088725;1.888318194265514;6.7169603655821355;7.264292213057153
A;-15.3;1.2519623078772233;0.03992169727173689;1.1140277894126898;0.08649508888212172;3.9051185660021015;1.866786864525854;6.649423748402825;7.231930381398018
A;-15.2;1.2719962952430566;0.01813258019113236;1.1087358182221694;0.07235057170309507;3.8853298364626787;1.8443762526025917;6.583422207537281;7.202416014612358
A;-15.1;1.2891577427855216;-0.003871922156338433;1.105270074660404;0.06014565516663698;3.862341047636379;1.821067756749806;6.518588568854301;7.173739641138696
A;-15.0;1.303733511346998;-0.025877386492049403;1.1036516428479421;0.04977081627834945;3.8366008232350435;1.797108645921857;6.456002913594084;7.145447251385619
A;-14.9;1.3162345842327217;-0.0475750547534215;1.1037084445333898;0.04101116923986581;3.8088975484304157;1.772889182278507;6.397150589821592;7.117637401818022
A;-14.8;1.3270480309586372;-0.06872110399767035;1.1056293429391497;0.033983621966320175;3.779571794760509;1.7487000066259315;6.34088310595201;7.08821358706751
A;-14.7;1.3367001844252975;-0.08903685626636874;1.1095754417390575;0.028708460699528853;3.748956655453348;1.7248407952351055;6.28613901148903;7.055381902973089
A;-14.6;1.345376028330784;-0.1083786228757333;1.1153028531738187;0.025299886800147203;3.7178887144732116;1.7016499639740423;6.232816587836436;7.0190022716777305
A;-14.5;1.3529281547637477;-0.12677858786037474;1.1224676541376055;0.023817631505184345;3.687112804669626;1.6793711240907925;6.180734413937544;6.979310394931684
A;-14.4;1.3597351385458702;-0.14407894038131452;1.130537995919896;0.023640762535066234;3.657363967180706;1.6582227957009492;6.132677398768927;6.9387949690958335
A;-14.3;1.3660726239822887;-0.16017974329358964;1.1388399663922997;0.023923922629775756;3.6293484920895906;1.6383542751719071;6.092347193737368;6.900927667533002
A;-14.2;1.3710972853509036;-0.17556283176992396;1.1469121314261101;0.023861612883794958;3.6029102986339865;1.619578824774857;6.0605066942077;6.867067300717642
A;-14.1;1.3739007276701924;-0.1907476724249486;1.1543105353744831;0.022503450820702486;3.577792878799245;1.601668243880597;6.037934268558712;6.838458254957376
A;-14.0;1.373583893956094;-0.20616307293525674;1.1604256029629167;0.019093732097368605;3.5541123002453454;1.5844633207599967;6.0259213716186215;6.81714832410989
A;-13.9;1.3692087350492859;-0.22226074473223237;1.1647211555423824;0.012997804032879165;3.5319711750596583;1.5678189765860449;6.024943766925678;6.8045518935462725
A;-13.8;1.361226752268129;-0.23880607254798658;1.1666759834104057;0.0032403193759350892;3.5122281656390855;1.551982094514006;6.038042642971489;6.802896711263673
A;-13.7;1.3508082793137042;-0.2552070745258244;1.165898601289395;-0.010747496524242894;3.4960300479419857;1.5373038563820012;6.068479685668096;6.814235392582993
A;-13.6;1.33831863470016;-0.27141016946287816;1.162384833510101;-0.02907300926900976;3.483716833093083;1.5239062869088988;6.115017169832889;6.83746914590164
A;-13.5;1.3243188283664766;-0.28729001239385416;1.1562891260802526;-0.052789226760618924;3.4755967001899255;1.5124017121273055;6.175904378195238;6.870806758459672
A;-13.4;1.310519509921371;-0.30208311900932533;1.1479987953759407;-0.08132526662545647;3.47225103023883;1.5032087921759627;6.249641835801353;6.912837144570099
A;-13.3;1.2983862458777207;-0.31514399110524643;1.1380060607857139;-0.10873126543173406;3.4739639593391254;1.4948442436676137;6.333946602847063;6.9617331570545025
A;-13.2;1.2895134384997278;-0.3256917696789401;1.1265642986684585;-0.1397907789558787;3.4814726534113163;1.4881173195993822;6.430104348097209;7.017346868445551
A;-13.1;1.2854480848177499;-0.33294185573230334;1.113899366730671;-0.18085121377453253;3.495445515512808;1.4906342458506214;6.53975581920341;7.079879897117016
A;-13.0;1.2850921912552111;-0.3374912294333828;1.1001987854359887;-0.21768046475844915;3.515031819459851;1.4863117539562394;6.660784358231048;7.147852951810036
A;-12.9;1.2863812770195266;-0.34043199612662;1.085598889541234;-0.243825185047144;3.5390659132095332;1.4896383821489112;6.7905891713822975;7.219670136685459
A;-12.8;1.2886736516033095;-0.3421447229641741;1.070410497701134;-0.28387606256157333;3.5665795924735484;1.493740864502514;6.925201600845775;7.293545150568558
A;-12.7;1.2911607365569642;-0.3431231338164891;1.0550071135120305;-0.336741847379695;3.5964413819489267;1.4989152648279438;7.059412659582681;7.367238742243388
A;-12.6;1.2924224349101059;-0.3441647791034607;1.039639441993269;-0.36784898368013774;3.628373904595868;1.5050255829291965;7.191260111322435;7.439818893406675
A;-12.5;1.2915876812110028;-0.34580222272211536;1.0245743728721877;-0.38431470226160513;3.662406440281862;1.5125780646222406;7.319119895599034;7.510457852410865
A;-12.4;1.2870496799958986;-0.3490071636006225;1.010169846972544;-0.43895707868100037;3.697821260295276;1.5213477975934817;7.438469622830301;7.576850777677335
A;-12.3;1.2771779078911132;-0.35474915080196795;0.9967128329392821;-0.46401829744451134;3.7339552675111727;1.5310225797715218;7.545465250307557;7.636911978369674
A;-12.2;1.2634075070642503;-0.36243460656458143;0.9845467283266137;-0.48819163794610027;3.7704501235289922;1.5415675989426232;7.635767869056082;7.6882997690957415
A;-12.1;1.2479974949909935;-0.3710182176494259;0.9738814078347126;-0.509098500135876;3.8068036489223154;1.5528385003162404;7.705181327082292;7.728887835762754
A;-12.0;1.2317335058265153;-0.3800473077374728;0.9645293510462652;-0.5265888937270198;3.843086264934596;1.5647557179394356;7.755401318567777;7.759232209049038
A;-11.9;1.2155583375969028;-0.38893897435563574;0.9561506492921824;-0.5382048112385572;3.879414135870641;1.5772095452764539;7.7892253230908395;7.780462446218505
A;-11.8;1.2002082584508502;-0.3971905728151812;0.9480898866839977;-0.5450882713949557;3.9147932748396292;1.5896547760997655;7.807256370795322;7.793485445481996
A;-11.7;1.185823522398331;-0.40458430067530077;0.9396065333247606;-0.5490376234640181;3.9481504712118056;1.601506224417489;7.8131616798990935;7.80057147703905
A;-11.6;1.173807226095362;-0.41035401305002256;0.9302794449940631;-0.5505271054751514;3.978466992062484;1.6122310621381608;7.806981215018452;7.802174191226687
A;-11.5;1.1656471766709038;-0.4137193724550876;0.9197670425299526;-0.5501032373735123;4.004672153958771;1.6213076632863848;7.778239097414261;7.7932025923403385
A;-11.4;1.1605251943163477;-0.41507150854429725;0.9079314272838582;-0.5483107617455699;4.026849711747045;1.6286994694334227;7.731945232693541;7.773769177632938
A;-11.3;1.1570520407584404;-0.41512170757755396;0.8948188749235665;-0.5454831993921804;4.045496996352523;1.6345654138196772;7.7110799283635245;7.767729721679494
A;-11.2;1.154526296052582;-0.4142017601890986;0.8802696248460894;-0.5420789988158718;4.060501508939054;1.6388675679631388;7.630971531752796;7.724463976564998
A;-11.1;1.1519538570529564;-0.4127794063743628;0.864109627868757;-0.538547434630615;4.0718891924900245;1.6416353446922824;7.575355420438348;7.699003505054058
A;-11.0;1.148621759911551;-0.41125464954771057;0.8465067583436773;-0.5350107191619452;4.0798767030333805;1.642982369347757;7.509586776816931;7.6801316611668335
A;-10.9;1.1442310968300002;-0.40981080840512113;0.8276358774073634;-0.5315938437080421;4.084480013113521;1.6429438118193118;7.438079431195097;7.646069607980109
A;-10.8;1.1374021900863454;-0.4091139410973354;0.8075043767333528;-0.5286000796356868;4.086320299211897;1.641738789993635;7.364280466070791;7.608606284131092
A;-10.7;1.1267970157277112;-0.4098222306198676;0.7861924778778695;-0.5263053324022273;4.086036942437691;1.639589631094515;7.294384419301351;7.575810207527687
A;-10.6;1.1128884594689976;-0.411603080777416;0.7635111451178394;-0.5253013474636002;4.082984804815562;1.6362200277687238;7.230209991179863;7.547422315036923
A;-10.5;1.0966966472568085;-0.4138487631994258;0.7392639698529891;-0.5261581282772587;4.076300158759304;1.631274354974696;7.172512669290666;7.519601846196388
A;-10.4;1.0792287994787209;-0.4161399074623103;0.7138631579415359;-0.5289521079342734;4.065290291289921;1.624531803316864;7.119790925742467;7.492618072447112
A;-10.3;1.0618789461201081;-0.4179000234462711;0.6878383243314995;-0.5335847098930145;4.0491654966880235;1.6157614379849818;7.0691848135425515;7.473209416159537
A;-10.2;1.045760785597405;-0.4187093841415737;0.6617070809156312;-0.5396612942508305;4.02794033258386;1.6050405432815922;7.01916178890574;7.443482771945934
A;-10.1;1.0316788106740427;-0.4183362225451696;0.6360482165399652;-0.5466172988093053;4.002003646124822;1.5925957097997976;6.968170230909563;7.417742864865946
A;-10.0;1.021057201024204;-0.4161153097578219;0.6110690428148722;-0.5540741130995676;3.9712050000026182;1.578440553712807;6.915017898239911;7.388082836364308
A;-9.9;1.0151341584443048;-0.4114489895447129;0.586850309490694;-0.5616974578693453;3.9355547213709854;1.5626317120766737;6.859189909858571;7.354502030083616
A;-9.8;1.0137522322489614;-0.4045225313338732;0.5636465077887838;-0.5691580476375181;3.895577946064981;1.5454006692889106;6.799520251966334;7.316576060361702
A;-9.7;1.0163400461051173;-0.39570294676682555;0.5416077626168271;-0.5762369704766103;3.8518036926084864;1.5269552714366779;6.735044365334288;7.274695799182118
A;-9.6;1.022090381560741;-0.38549436355635347;0.5208554831005284;-0.5827957909061462;3.8052623638719254;1.507650704107955;6.666445978564577;7.229448778257715
A;-9.5;1.029929501430795;-0.3745424398544938;0.5015332130405862;-0.5887417577069446;3.7570737644853662;1.4878546461974131;6.594605114656084;7.181486011243763
A;-9.4;1.0393809031383958;-0.3630226874726808;0.4833670733733062;-0.5941939321886611;3.7073993560415155;1.467556689144315;6.520364111173552;7.131263196978838
A;-9.3;1.0501252169657684;-0.3510077325814951;0.4660045042522059;-0.5993133191454353;3.6563218227643346;1.4467123584270973;6.444734176104421;7.079210913437326
A;-9.2;1.0615845000528428;-0.3387993453692424;0.44950323611789494;-0.6040757821918964;3.6039831901249433;1.4253179743387026;6.367192052993347;7.025224111396189
A;-9.1;1.0732458302558667;-0.3266492457633812;0.4338870476348706;-0.6084451261641858;3.550461398038518;1.403354257777541;6.287116126943295;6.969144690497699
A;-9.0;1.084636755776249;-0.3148829850881327;0.4192330585908146;-0.6123002029029297;3.4967712529529025;1.3811801223707698;6.204923457567958;6.911451949796098
A;-8.9;1.0952331261417658;-0.3038882573852586;0.4057012500966395;-0.6154905902480241;3.444234635809607;1.3592839217238806;6.121363495040412;6.852907698007726
A;-8.8;1.1046980603811225;-0.29374815309218444;0.39283881178074154;-0.6180719869421951;3.393612852754878;1.337933260775636;6.038440129242498;6.794591773868036
A;-8.7;1.1126898450680065;-0.2845299019015659;0.38008688208564606;-0.6201689407376371;3.345741098476156;1.3174310995866287;5.958685067105656;6.7378685311610935
A;-8.6;1.1185731535943537;-0.27654932042872904;0.3674077264967293;-0.6218724464210567;3.301523134683009;1.2981092658893216;5.884144808341763;6.684205596889327
A;-8.5;1.121786686773852;-0.2700619105871714;0.3548160159843696;-0.6232853830094888;3.2615832387100716;1.280193389444616;5.816811803847866;6.634984476161701
A;-8.4;1.1216991020062501;-0.26548398855190075;0.3424186923511659;-0.6245437634828548;3.2270567097638634;1.2641282660580548;5.758323072812343;6.591616859208934
A;-8.3;1.1177875884693884;-0.2632011713081148;0.33046169138321146;-0.6257450714172815;3.1989365398470344;1.250310479879276;5.709798495381414;6.555222046585367
A;-8.2;1.1102700000350925;-0.26299621549087987;0.31884486264092765;-0.6269234565683476;3.17688617361634;1.2386143844835387;5.672275302579045;6.526095583646888
A;-8.1;1.0996334216463228;-0.2644944570057059;0.3074107142897345;-0.628095012499096;3.1602730265277237;1.2288197806710925;5.646177896524287;6.504084474068839
A;-8.0;1.0864523516183218;-0.26730260172328507;0.2963728725027241;-0.6291302004447156;3.148224788768998;1.2206092033613352;5.630933983231501;6.488517653065494
A;-7.9;1.0714609969244056;-0.27092229151584224;0.2859408349210836;-0.6298674692398386;3.139678159048715;1.2136028748913177;5.625679414087835;6.478526304311529
A;-7.8;1.0551773165311802;-0.2751556096498409;0.2762541168626725;-0.6303045396963087;3.134514676219874;1.2078684973279274;5.628407250780249;6.473290357510334
A;-7.7;1.0380660326967475;-0.2798824412471041;0.2674756240390012;-0.6304755290404035;3.1327789230582823;1.2035543600479555;5.6365496561527415;6.471833008990656
A;-7.6;1.020744705630837;-0.2847485475539786;0.2594308219908575;-0.6304356921626345;3.1342257017609874;1.2006804219494407;5.649268392148339;6.473870533441553
A;-7.5;1.0037914245628212;-0.2894376772170073;0.2518832192515374;-0.6302870297641835;3.138686882126811;1.1993023965899992;5.665663381251065;6.479147444976756
A;-7.4;0.9877207604634353;-0.2936658856576215;0.24487674432860765;-0.6300749299724604;3.145478410547792;1.1992186327273469;5.683807969013997;6.486500922608427
A;-7.3;0.973026558202616;-0.29712402809202193;0.23846395929276062;-0.6298040110843862;3.1537391370797323;1.2001244630196208;5.702178502500131;6.494813494970284
A;-7.2;0.9600249805732947;-0.29979422569855024;0.23280372228384505;-0.6295738618151709;3.1631646977231163;1.2019797400439531;5.717660501474524;6.502601699561535
A;-7.1;0.9489694427511468;-0.3017001511533331;0.2281305912988194;-0.6294361556821931;3.1733901895389374;1.2046961700027927;5.726966192310383;6.508195155320943
A;-7.0;0.9402042496028309;-0.3026036905010943;0.22436669318192937;-0.6292797189747468;3.183936610564775;1.208074355003343;5.730431217208767;6.511559605701873
A;-6.9;0.9339753170851678;-0.3023056611322857;0.22132936540343992;-0.6290023250858722;3.1945749505771914;1.2120115987442766;5.729130931230529;6.513259116267972
A;-6.8;0.9305338861401103;-0.3004994697415461;0.21906385823737543;-0.6283251053618798;3.204348357728346;1.2160396311011779;5.723550951067392;6.512818557222225
A;-6.7;0.9300542302145054;-0.2968807044915473;0.21756840184184653;-0.6269517677842223;3.2124045543141935;1.2197188402263146;5.7150486429613565;6.510219150582064
A;-6.6;0.9322746223660574;-0.2916404414958172;0.21666515489869975;-0.6249947562160211;3.219308100601102;1.22330986375302;5.703272435402245;6.506117147658762
A;-6.5;0.9367646718282222;-0.2850886312852161;0.21620179504768625;-0.6226153823513183;3.2257388546767873;1.2271169388145848;5.6874181684285;6.500983815434523
A;-6.4;0.9431110593510225;-0.2774571144969252;0.2158237078560172;-0.6199492418194049;3.2328403258735174;1.2316294385023763;5.670314733824903;6.497194647023673
A;-6.3;0.9508158762468127;-0.26904336301662884;0.21510099208176192;-0.6171967963098023;3.2418862930173717;1.2373988067719643;5.654782120324597;6.497165907301427
A;-6.2;0.9594267419527424;-0.2599251924569999;0.21408288717881854;-0.6141731012855919;3.252288290274773;1.2440400881436169;5.641986688453845;6.500439182444894
A;-6.1;0.9685315528995039;-0.250086800216151;0.2129909146342267;-0.6105052363191982;3.263101457819873;1.2509675818726584;5.6340231916192;6.5063325648202435
A;-6.0;0.9776072317146518;-0.23976472710175667;0.21172985123759655;-0.6062181507314035;3.2738076707211996;1.2578926657274823;5.629217511447982;6.513185728007183
A;-5.9;0.9861350122589644;-0.22917525176252487;0.21029075026019947;-0.601278334495159;3.283646483535;1.2644113544976747;5.625223894236225;6.518815807910979
A;-5.8;0.9937820578330202;-0.21835738191989615;0.2089204365244942;-0.5952485061392535;3.292935819449671;1.2705430144681078;5.627094602108641;6.524660827015222
A;-5.7;1.0002669374614128;-0.20736310448535247;0.20774586957731608;-0.5877950287110781;3.302416477561094;1.2765467105884911;5.640083011628732;6.532698078950266
A;-5.6;1.0052887527156393;-0.19606885197997018;0.2072415529486891;-0.5783043729112487;3.3114662666406294;1.2819819846502167;5.66756193937925;6.543213481097759
A;-5.5;1.008605802327463;-0.18432522002859594;0.2079078454655313;-0.5661798466944354;3.319647687208384;1.286502637649509;5.7136766537961465;6.5570859913181545
A;-5.4;1.009943405006507;-0.17233117257093125;0.20918792412783405;-0.5519364962774844;3.3272358000560858;1.2903949900778091;5.77448427861064;6.573144181032174
A;-5.3;1.0090320228249439;-0.16033944225941474;0.21028948354378782;-0.5363730652604671;3.3340813281771315;1.293822694586981;5.842077558278738;6.588700845627627
A;-5.2;1.005797796619946;-0.1485897323929842;0.2107544124078077;-0.5200647274384828;3.3417547213080083;1.2976678636788481;5.917669010113532;6.605859153858152
A;-5.1;1.0002256575456523;-0.1373509599988969;0.2099358499813493;-0.5037662425362859;3.3518720519345155;1.302875463259513;6.001323822945153;6.626333978596068
A;-5.0;0.992229155205819;-0.1266471681490824;0.20759965838875458;-0.4878071948240044;3.3626025572539597;1.3086765878260247;6.084664687096734;6.646419986207289
A;-4.9;0.9818437339805293;-0.11641521369811396;0.20387657480885243;-0.4722182558232169;3.371923478351239;1.3141517730842855;6.1608055821691154;6.662960815179336
A;-4.8;0.96908785211577;-0.10671085724454048;0.197862198379398;-0.45777991729615497;3.3776941762097685;1.3185304670941222;6.215856269640844;6.669346015619986
A;-4.7;0.9540249843369092;-0.09755374176771585;0.1887657103458258;-0.4451430429709517;3.3775876830102534;1.3208875651425718;6.2350896100996644;6.6585646203930215
A;-4.6;0.9372171670890528;-0.08892570253291628;0.17721004959823336;-0.4340005832443608;3.3732162659249263;1.3220385178651435;6.224703488211742;6.635031087593333
A;-4.5;0.9193443962624732;-0.08084221334671889;0.16368312811376393;-0.4241547989832111;3.367952201883646;1.3234504436667054;6.195879753296931;6.6057658479408135
A;-4.4;0.9008792106463058;-0.07318477521685285;0.14938721231220767;-0.414751661937685;3.3624540306647255;1.3252527751315035;6.1544457539091235;6.575221791874589
A;-4.3;0.8823292282004637;-0.0658290729252533;0.13584510889936932;-0.4047537477241437;3.3578979756296365;1.3277359508441977;6.10907121386657;6.549586890464141
A;-4.2;0.8639927314712619;-0.05889512128656745;0.12159997288976038;-0.3953217452352356;3.355879525121813;1.3318545905763604;6.061600248040832;6.530193807157848
A;-4.1;0.8459706750211161;-0.05253613522751769;0.10460211060915107;-0.38797635807645153;3.356936563511242;1.3380725501347583;6.009604116883518;6.5158460183273474
A;-4.0;0.8287289125551515;-0.04689339288513968;0.08472853483891428;-0.38321270508323596;3.364126206533593;1.347967675204105;5.962908069538301;6.513043597288541
A;-3.9;0.8126609242238709;-0.042119249007934734;0.061474806488288174;-0.38180664509769624;3.3802452420000915;1.3630841345391425;5.929945563743986;6.526480192844645
A;-3.8;0.797556226809081;-0.03817478977113472;0.03511918770108197;-0.38339402931338934;3.4024109923965007;1.3817037016583855;5.906063064676861;6.554118983745543
A;-3.7;0.7831798273782841;-0.03490959532318142;0.0075892527947980055;-0.38642807662400624;3.426739376352996;1.4014538815821032;5.886094038693532;6.594363714659456
A;-3.6;0.7690625623547268;-0.03226250608116862;-0.0230240017704057;-0.3919856059970937;3.4490825997020154;1.4205542095944421;5.855514518261445;6.634543096386584
A;-3.5;0.7546355167466867;-0.03015724594704287;-0.05875872755713885;-0.40103509967645196;3.4645531170839963;1.4367266303882225;5.7968875890290095;6.660513060878409
A;-3.4;0.7402100677993154;-0.028321790550581483;-0.09431288284966756;-0.41021156402894327;3.472562059662291;1.449499337170211;5.71352277775308;6.675723531283798
A;-3.3;0.7261416450877948;-0.026495859743591883;-0.12411502874607651;-0.41626641455979413;3.4738716225867385;1.4594279237845669;5.611272035392645;6.68267190070727
A;-3.2;0.7123974202377216;-0.024535214764458562;-0.14393426534306983;-0.41580044581621145;3.4665771688790987;1.4644801177953972;5.491360130736559;6.68724291845239
A;-3.1;0.6989127359250277;-0.02233108056334269;-0.14884465052136878;-0.4051336703524934;3.4489185151545527;1.46267231709229;5.352395126075904;6.695862871267106
A;-3.0;0.6848022361100239;-0.020009885400739336;-0.14219722141489105;-0.38710264592528504;3.4199449131023685;1.4549950181581195;5.177470836395038;6.684999391778155
A;-2.9;0.6688236973497155;-0.01787297111911072;-0.13176902320803355;-0.36703044813578184;3.3775755775500307;1.4418069433532184;4.977362314052903;6.644316641240658
A;-2.8;0.6504417200258156;-0.016033483290169848;-0.11687636080838036;-0.34599003271868867;3.3211922232377216;1.4242756163468726;4.759539257488307;6.571659058189496
A;-2.7;0.6291162879113587;-0.014557276623998897;-0.09747531880777738;-0.3257886956247538;3.2514961581240915;1.4048880644717958;4.3932035334578705;6.399860673200035
A;-2.6;0.6039585556952876;-0.013908598417156822;-0.08335497130610543;-0.31057305787847006;3.1630046957918077;1.378869229628758;4.159684565714384;6.254901012820512
A;-2.5;0.574420615025887;-0.014537752272101597;-0.08291148127498661;-0.3031415258811731;3.0492042932623113;1.3397418847021108;3.8232471787931366;6.117075403332673
A;-2.4;0.5396213143019075;-0.016479355454991424;-0.10673418808779038;-0.3097438688439735;2.912085873670853;1.2900017399060244;3.425224350905298;5.87477920833724
A;-2.3;0.4988437229851715;-0.0198167781313634;-0.16587052147889625;-0.3356537051530764;2.751491599237324;1.2297853206365297;2.814264141982154;5.575107239099663
A;-2.2;0.45314404936057384;-0.024301812316572285;-0.25179479488141465;-0.37666071266541906;2.567186577425289;1.1580935037285087;2.179462158386508;5.147197345456228
A;-2.1;0.4039278672082253;-0.029337907770787968;-0.34862241224756935;-0.42614431174417194;2.3644734300135886;1.0796636416456729;1.5198701526479645;4.633689334584774
A;-2.0;0.3524327090840984;-0.03534873014409534;-0.45113679211273344;-0.47512177529484695;2.1282585364823707;0.9787825925352424;0.8828472627319465;4.0732569625044075
A;-1.9;0.300085163650943;-0.042651338224053426;-0.5520660189727016;-0.5149022882429536;1.846326824929134;0.8404963282471188;0.4078532613482797;3.5385238548458466
A;-1.8;0.2470645826474319;-0.0502012548296434;-0.6378181740479193;-0.542313508364885;1.5387154614332594;0.6852897128189408;-0.16729949444675932;3.0093135305803163
A;-1.7;0.19325814664323313;-0.056938339430329186;-0.698353718828875;-0.5534718932602057;1.2240778988632075;0.5340597710564522;-0.7106989390038372;2.5065434182676527
A;-1.6;0.1395177756717582;-0.06111754694286464;-0.7165347769805565;-0.552216560874124;0.9398107430802488;0.4147997054771366;-1.2372577474642483;1.9449349416885273
A;-1.5;0.08674015911404294;-0.060892313250133036;-0.6753721160377483;-0.5447567386287728;0.7246170013857661;0.3573064708963211;-1.2125521154385173;1.3183093667570807
A;-1.4;0.03602453022477844;-0.05656475268883169;-0.5832480745011122;-0.5210479075275506;0.5553219174466465;0.3412140336844243;-1.3750438252555017;0.5823252491812287
A;-1.3;-0.011141067113449902;-0.04956415160302008;-0.4565025800517944;-0.46388122923448655;0.39600815012442264;0.324138347341405;-0.7780901846135245;-0.37040195700036316
A;-1.2;-0.05397434023208062;-0.04063620599938359;-0.30344321463403706;-0.3651690615000325;0.21846785263313784;0.2927209900531711;-0.08952882920521558;-1.4726405672451504
A;-1.1;-0.09209821684398782;-0.030106005547345067;-0.1354905707911071;-0.2376565779199241;-0.0008974033295355474;0.22499704392385725;0.051059928662190744;-1.4642488809886578
A;-1.0;-0.12412768621374504;-0.021167988661983845;0.03629227488774101;-0.07113505155199402;-0.25186725557810136;0.1038774482455107;0.22406945091707375;-1.4720654053226045
A;-0.9;-0.14623512264085145;-0.0125440833794818;0.205073009247674;0.16354995930794688;-0.533055801921179;-0.0989994099476353;0.3028147215848151;-1.4356379119615275
A;-0.8;-0.15653587811610947;0.0036330932421012227;0.35485317031021485;0.38938090030593697;-0.7666344117065265;-0.29994008883763595;0.4064781420298209;-1.4195182265386304
A;-0.7;-0.1639186950396002;0.003780727788808965;0.4699538046824084;0.5006987679396167;-1.0048060934953955;-0.5450534768375922;0.47662883190258376;-1.4029667318698806
A;-0.6;-0.1666998710325993;0.045225835711642993;0.554998667224761;0.5496617527593921;-1.1887871599173956;-0.7286624251661232;0.4993688662664182;-1.3759302355688463
A;-0.5;-0.12367486258357434;0.0706622043638682;0.6201264908494607;0.5742938234896435;-1.2886484341170996;-0.7980952242044109;0.3879636202573769;-1.3550443709780913
A;-0.4;-0.1287121425020302;0.03687948219314663;0.6716107460964674;0.6031842329465346;-1.3094679569141146;-0.81119258877699;0.30720071370799257;-1.3608769537523393
A;-0.3;-0.09560123697013623;0.0728475167925442;0.7182897188527154;0.6395181432949687;-1.24695345587274;-0.7379113642648013;0.3889546384303408;-1.3412350912950934
A;-0.2;-0.06350293858080924;0.12301238397823096;0.7651356888961449;0.6868581438235126;-1.0955899707085972;-0.6004387615122777;0.4857711180656377;-1.2752789515015277
A;-0.1;-0.02890100916731401;0.16169146663082254;0.8136324659109985;0.7345268685322183;-0.8848964428175196;-0.4773891047321192;0.7494605795231287;-1.227362039802334
A;0.0;0.006347256270851531;0.20025783448851295;0.8720655166956689;0.7812887178856252;-0.5318696766096904;-0.23112821756617366;0.9685598668370511;-1.1523809945185197
A;0.1;0.04336983868257723;0.25848347224132845;0.948248453239299;0.8247526206454276;0.04137456677383048;0.17998395924623978;0.0612921715710989;0.30855084876159583
A;0.2;0.08104119649483721;0.3190576898999818;1.0382568881443237;0.8653861562750637;0.7343715595138045;0.6198484221422996;0.07300723628156776;1.1195033025071923
A;0.3;0.11753259481405849;0.36399946220885643;1.1353026341076247;0.9057013647620108;1.3640130000732962;0.8859257093653626;0.8676304595959216;3.1608694008994402
A;0.4;0.15239909780579838;0.39287681504486766;1.2339449022179834;0.943855897913516;1.808920484134391;0.9864737099354647;2.2786621730237826;4.384515689785226
A;0.5;0.1852060682388069;0.398659532728999;1.3273152352693969;0.9774628062015692;2.0777898538270576;1.0038261736549128;2.971204185225183;4.876458130947606
A;0.6;0.21396596045531494;0.4065718039644824;1.4121007242949428;1.0060371772774077;2.224549882467088;1.0064069595705263;3.253595102477153;5.1790766523347855
A;0.7;0.23671617862685115;0.41627243358415544;1.4872648886558073;1.029278745668267;2.300493400856595;1.0118527677657987;3.491988035200731;5.296087044445257
A;0.8;0.25236916568519724;0.43085746897217564;1.5481644235651577;1.046521798038054;2.3660729866314933;1.035981551546506;3.7461471477493027;5.464684195325579
A;0.9;0.2601085524278985;0.44052723117026255;1.5907000295706302;1.0574655860660689;2.459476540684428;1.046520760011313;4.03901691525319;5.595665341465176
A;1.0;0.26045514061420566;0.4490754795958208;1.6166066245322164;1.062316697012684;2.5784413222591627;1.0637803931984282;4.339595223285143;5.747781580045612
A;1.1;0.25459430266856103;0.46172444086826214;1.6289144162864349;1.0612828874170448;2.7044948593774802;1.1133436757274369;4.52589817607625;5.92993332745933
A;1.2;0.24304422172182605;0.4727231042204331;1.6304756576740418;1.0553116887869745;2.8131682142920873;1.1711775422788733;4.627769113557796;6.098698624061562
A;1.3;0.22645444647074875;0.4748985242424399;1.62491332530328;1.045447534398881;2.871844987472383;1.2039928514841816;4.699772900990197;6.196449572728723
A;1.4;0.20586584203275185;0.47060125407669123;1.613244357308316;1.0313330153702043;2.8929782933030714;1.2199292115207696;4.74105058565985;6.246646833559182
A;1.5;0.1822050089597876;0.46364608554173586;1.5954624315246626;1.012493473819969;2.901925498710444;1.2345375963828429;4.741659919306412;6.288541733792325
A;1.6;0.15672414333242202;0.4549199053093667;1.5736251276762119;0.9885283196947517;2.900257279087999;1.2434192169287284;4.74792385323908;6.326812545115502
A;1.7;0.1307145231083228;0.44553720147450093;1.5496944237190189;0.9589858311583567;2.8900386193554817;1.242854049156305;4.771128559846939;6.3364951776178975
A;1.8;0.10451702718545312;0.4354253240839731;1.5240992088031218;0.9248187879651534;2.8754881167756934;1.235895961869722;4.817977151797048;6.33662276803084
A;1.9;0.07835467763028318;0.42395050416561136;1.4972572226004004;0.8875322409103003;2.857707677008909;1.224572735310982;4.866672810710194;6.332208224258376
A;2.0;0.0527363828366445;0.4112693683116051;1.469179399747583;0.8479691553314447;2.8434212979014952;1.214650413891995;4.945157378026696;6.349241381975957
A;2.1;0.028112321654640542;0.3975873299589037;1.439646881357712;0.8071356618687058;2.8394493486085266;1.21253774826038;5.022406277252771;6.409932777981585
A;2.2;0.005597311380773166;0.3835326088922277;1.4101542965158986;0.7663885962995853;2.8450035482157845;1.2163412161589298;5.106790037952122;6.498227723489815
A;2.3;-0.013583074592930622;0.3698635275505904;1.3824312760151596;0.7268134171493165;2.8581692998056334;1.2226225462288742;5.19648815961246;6.58876693167175
A;2.4;-0.028885178506276254;0.35707806051308033;1.3572916062353615;0.6899337110161398;2.8761027220666193;1.2288395194884372;5.281692535136603;6.667935223689984
A;2.5;-0.03994111180727167;0.3455799227080574;1.3354087892976823;0.657153653293482;2.895284603034314;1.2319733954462782;5.351510359726245;6.7232328157589905
A;2.6;-0.04664610957393064;0.33531623332460914;1.316613801909922;0.6281817059042015;2.917334787858645;1.2331986075350752;5.409649343153926;6.759776313345177
A;2.7;-0.04923573140680156;0.32600602595957745;1.3002468821683237;0.6022232518511172;2.944749506434293;1.234875316854169;5.4621795558920025;6.788455967489727
A;2.8;-0.047733623806426095;0.31744126180012905;1.2861928924988548;0.5786731523691092;2.97924649528492;1.237978900480452;5.515289203227169;6.8192079771062035
A;2.9;-0.042217725252605774;0.3093641586865328;1.2742765387983603;0.5567030253633779;3.0224861756582215;1.24355552533754;5.575997567359;6.863811623109452
A;3.0;-0.03340919875538321;0.3015003875043796;1.2638744118185006;0.5359379028898915;3.072660190580978;1.2513436135449625;5.6424054482165;6.921448288959187
A;3.1;-0.02209131313696666;0.2936366878589656;1.2544306130811795;0.5162469115823644;3.1270592457229984;1.2605355509774878;5.709986304717929;6.9866746922817
A;3.2;-0.008808217838811435;0.2856143166368845;1.2453016979335232;0.49703800205070464;3.1831993955248614;1.270743258821632;5.775477932003358;7.059704456661429
A;3.3;0.005915496058225796;0.277329963030368;1.2358491062509562;0.477778431754677;3.238522606429983;1.2816202167207855;5.835599246596504;7.140326967780449
A;3.4;0.02203347595943687;0.2688586839282919;1.2261744709545985;0.4584648754891534;3.292705220606925;1.2931221402248803;5.889302860500443;7.2259061089108165
A;3.5;0.03970618543521839;0.2603552638804268;1.2165564762577221;0.4391666731804114;3.3458897323408228;1.3051523207653364;5.936411852257291;7.313734922507936
A;3.6;0.05870975990425453;0.2518985646758898;1.2069939925077415;0.4200731766035197;3.3983107435654687;1.3180625592888824;5.979428108647021;7.402191079215655
A;3.7;0.07880671738103562;0.24355251306706607;1.1975168587183256;0.40142101333900876;3.4503207603167723;1.3321328921625828;6.019163055796201;7.488274550076825
A;3.8;0.09994819632341094;0.23541391516260113;1.1879124603912588;0.38300131028253154;3.500301047397761;1.3463590083002375;6.05490946757979;7.569725824712965
A;3.9;0.12201162787004242;0.22753759829406275;1.1778698311590212;0.36452890279063715;3.5464004829218254;1.3596834726982474;6.085399385733776;7.644556592865545
A;4.0;0.14495116785532916;0.21990150357592775;1.1673771652759004;0.34577228882444144;3.587039277025219;1.370791127874621;6.097064190141112;7.703451639816237
A;4.1;0.16876599876277196;0.2124913089038761;1.1564839236484628;0.3265008456725578;3.6205794663251907;1.3782331140835729;6.085837649406364;7.742887943703057
A;4.2;0.19301670354524672;0.20518124932202544;1.145159102793515;0.30679069194096265;3.6474666503562703;1.3825113358378012;6.051907897508386;7.762182370043591
A;4.3;0.21721059808158585;0.19782114279636906;1.1334314550609976;0.28682833806508157;3.66894662162341;1.3847251710151245;5.979185618711862;7.751555015265359
A;4.4;0.24121664852516211;0.19052337972485311;1.1213500203378044;0.26677140657204773;3.685126839312718;1.3849708221066634;5.9167414438098485;7.7390308445099585
A;4.5;0.26488747952462344;0.18340146013105554;1.1089545891644583;0.24682292473902878;3.6964560156672945;1.3836741780906925;5.923993351476205;7.75885522085774
A;4.6;0.28825598971775407;0.17650278159861474;1.096447787311312;0.2271149853808181;3.7038128278236884;1.3812810908271127;5.932319774991073;7.770941451813709
A;4.7;0.31154709997442076;0.1699462057356221;1.0840597569241377;0.20774691104134213;3.707558538874123;1.3777145610053434;5.9140125951022435;7.765506353733607
A;4.8;0.33439262436714606;0.16351757984345797;1.071825983729734;0.18887120279389244;3.70954977109669;1.37460258963002;5.795441098530143;7.697575671897887
A;4.9;0.3563331509281258;0.1569600275372336;1.0597405333036334;0.17061103582885728;3.711707974526503;1.373451755027667;5.615475088122878;7.5950658583161195
A;5.0;0.37765684004509764;0.1505044723915292;1.0478020666792187;0.153041337024283;3.7125482068727016;1.372905458676998;5.518026520226637;7.565796825333674
A;5.1;0.3986007678492574;0.14443363223081138;1.0359579800911078;0.13621532935808997;3.7101185519844777;1.3711275827092768;5.512204364034711;7.582131042884796
A;5.2;0.4192413254624774;0.1389965181951546;1.0242163012655934;0.12009178387734935;3.7031469447159977;1.3657510762244902;5.536692706024199;7.614129482525087
A;5.3;0.43976539767297984;0.13433308987195058;1.012610129192262;0.10461933525657008;3.6900272338129283;1.3549790162946465;5.4209763388213466;7.551930497888165
A;5.4;0.45936889316311547;0.13031286381285145;1.0010312716755536;0.0897894246197272;3.6716859621539086;1.3388708129150935;5.229451280207207;7.440847539788535
A;5.5;0.4768080020303887;0.1264193332443216;0.9893502477532135;0.07557107526779339;3.6505116613857425;1.3194160932113241;5.070700312890668;7.34956572900192
A;5.6;0.49206265627753193;0.12172630871730217;0.977574808100945;0.062050441881908704;3.6261957101041475;1.3017952573952787;4.932679436459755;7.268021332875709
A;5.7;0.5051495184669821;0.11648532136595069;0.9657051299216665;0.049313146618478264;3.5986389447063463;1.2864558922943308;4.777599676039418;7.190604527114097
A;5.8;0.5150704625624054;0.1097369734372089;0.9537336659134077;0.03724920325057557;3.571024398956626;1.278482406141653;4.64346002895401;7.116874703870091
A;5.9;0.5210675856411249;0.09798618474920555;0.9416827444554947;0.02572751510554916;3.5468327005365308;1.2920697663088836;4.615864982724427;7.052047125523451
A;6.0;0.5220538825166984;0.08553531936164778;0.9294009983297079;0.014552943475325542;3.530379878957771;1.3066244690714364;4.646466028961424;7.039161446440488
A;6.1;0.5168706489418589;0.08009766424929883;0.9167233449547999;0.0035062555874218284;3.521223181825284;1.2968853640449947;4.6038269141497485;7.01096068156372
A;6.2;0.5066355948806499;0.07370871346043224;0.9036774233694361;-0.00741491856150193;3.516007944088596;1.2965192435063086;4.632504038758238;7.050084414435628
A;6.3;0.49333656520416086;0.05590893033286459;0.8902957876213816;-0.018177536996782706;3.52851112105297;1.316314576866034;4.941973820998653;7.3062249175982865
A;6.4;0.47767363787794387;0.03178529717077646;0.876683506783154;-0.028793121987819248;3.5524261961538475;1.355268699541211;5.330293946819788;7.5775411392525704
A;6.5;0.46060734520630026;0.007988011881981727;0.8629816069637295;-0.039257402907404426;3.5064921625497747;1.5120127557345924;5.559483706181292;7.573201702309492
A;6.6;0.4439910716750283;-0.011538485537016344;0.8490777590533337;-0.04970034728922457;3.5581836018469346;1.546514571440296;5.620070188842374;7.499832117414782
A;6.7;0.42929336895470643;-0.0214910299932205;0.8348197896388166;-0.06028118393982377;3.5425820185416423;1.5442216915605433;5.50529761120929;7.391680145937194
A;6.8;0.41883941518187334;-0.024098862343478505;0.8201745340597545;-0.0710562088372561;3.525743971051842;1.5198894001892862;5.3257136647286645;7.305788791043608
A;6.9;0.4149370236326371;-0.025078226983419622;0.8050821077573577;-0.08208406886865423;3.4953889376773;1.5257549257069447;5.25813824715843;7.2429473394301445
A;7.0;0.4167742590518085;-0.02280465831720709;0.7896018229741447;-0.09337767816324849;3.4556899374460883;1.547404494577209;5.2348865601735275;7.199689060769118
A;7.1;0.4224753251881303;-0.014241092010016962;0.7738593878274941;-0.10487659931201303;3.407817877895814;1.539758030543447;5.13350159826263;7.1470615198953915
A;7.2;0.4311072090568994;-0.003625180674280711;0.7577374545949827;-0.11664017775175821;3.3553229463633136;1.5163455964314032;4.980860838903692;7.083642362811349
A;7.3;0.4412872285780522;0.003907889750405087;0.7411262112826348;-0.12886292565522486;3.3036454468692185;1.4937949354707636;4.816267623662576;7.013855497500139
A;7.4;0.451394469140145;0.009044741812727667;0.7241121439045443;-0.14147438134376186;3.256391005645639;1.471818327958686;4.631837648758895;6.924113317368744
A;7.5;0.46028873380507135;0.013321095475652042;0.7067696908819786;-0.1537861553312793;3.215792644226283;1.4497512180087788;4.441562023897844;6.816879988575938
A;7.6;0.46577539939068746;0.017000688829419925;0.6893529313091964;-0.16573505105356526;3.187284874200575;1.4346804189677902;4.257540545017163;6.69815281278263
A;7.7;0.46572634125174933;0.020556033107641685;0.6721377849501858;-0.17965508062003663;3.17607690321365;1.4335985480393416;4.077222091327165;6.586245933634952
A;7.8;0.46080977488042113;0.023555270503483012;0.6550270569041045;-0.19013059263151297;3.1797204725519754;1.444108572698038;3.9945893272386024;6.556650502167685
A;7.9;0.45248731225816635;0.02539068419528571;0.6378742645806481;-0.20253191897224573;3.193532842363075;1.4615645468408072;3.978640880307266;6.5663984636067765
A;8.0;0.4416531170690267;0.025521257394072922;0.6205194271070802;-0.2147711660762933;3.214822251914743;1.4835106219692686;4.007888939259121;6.564313468856686
A;8.1;0.4295534512161936;0.023509767556170697;0.602756104550546;-0.22731734499956957;3.239969373676443;1.5065420233114697;4.052287390348273;6.591616260088718
A;8.2;0.41693591542587943;0.020103267212822;0.584700711391998;-0.24002458797975676;3.266072770469956;1.528673740914812;4.106106584524399;6.620718267208548
A;8.3;0.4040872301315999;0.016195723941377693;0.5665425469280209;-0.2528615086036264;3.291562490035171;1.5493025476249827;4.184085339850834;6.661618403637231
A;8.4;0.39223758239952494;0.012834766365283912;0.5482799367698034;-0.26574622872136483;3.312229832566396;1.5651749845457514;4.258083701657934;6.698726689032948
A;8.5;0.3825793265683555;0.01110424801492993;0.5299502609982495;-0.278516081365128;3.323947603941974;1.5731157906084459;4.297035122420957;6.7171113670066065
A;8.6;0.37473953221718315;0.010534782797191037;0.5115094627191983;-0.2912713843721673;3.328085949527162;1.5744645337701837;4.305800976563915;6.71995254844348
A;8.7;0.3680440007369228;0.010266264913509756;0.4928334647938241;-0.3042169874242913;3.32755670887112;1.5717261799323605;4.297123879491662;6.714393009144421
A;8.8;0.3620110699756281;0.009840187925376812;0.4741243529498458;-0.31720733450961625;3.3239596734613137;1.5665028008393491;4.2718663098407825;6.703926825178681
A;8.9;0.35599163632044445;0.008683722749509274;0.4555718107002649;-0.3301500398429538;3.3195821966628927;1.5610026178131677;4.233583874767294;6.691477404458081
A;9.0;0.3500845457162913;0.00683648562198691;0.4370318025342517;-0.3432575025214503;3.316119233769585;1.5566650274748655;4.189773750581984;6.680315646765545
A;9.1;0.3446869623599123;0.00462986938056383;0.4183771696686615;-0.35666009240302454;3.3142552933327036;1.5540850521162513;4.145755315898417;6.675725688997075
A;9.2;0.3395365862006849;0.001834271567796364;0.3992357086643031;-0.37087649740625633;3.316570830397462;1.5556148617823757;4.111724099698928;6.673629544124977
A;9.3;0.3343932880049798;-0.0017562509372256823;0.3791975484473258;-0.38645735352715277;3.325492105354104;1.5634525329405082;4.098120188389066;6.665468579000357
A;9.4;0.32944128472614365;-0.005944795575262063;0.35848184040662173;-0.4029954834549348;3.3393255318661885;1.576580431630737;4.101062755583132;6.66132163221748
A;9.5;0.32485112038674746;-0.010547917755675762;0.3374055014306478;-0.41996510087837685;3.355210210417591;1.5932537945611367;4.1112654632405965;6.668505418156407
A;9.6;0.32102300759853897;-0.015219219522547492;0.3162091411682681;-0.4369741399114619;3.371022866582706;1.6118533065112643;4.12471850185067;6.677336964608519
A;9.7;0.3184363777792048;-0.019570852815933886;0.2952180638203092;-0.45351546978252105;3.3840968695931095;1.6303191191169972;4.13555863110013;6.690442918852213
A;9.8;0.31698277048693857;-0.02375364506022759;0.274302599583234;-0.46989887992818336;3.39241882326325;1.6480341940226104;4.133347565400947;6.666856966088157
A;9.9;0.31644631097415915;-0.02807001465503441;0.25315502619255614;-0.4868192340277598;3.3946454576377767;1.664944920387767;4.1076671861488006;6.60416908225199
A;10.0;0.3168250196382874;-0.0326567146215296;0.23192280283925024;-0.5041502572615567;3.3881632632438223;1.6798327342524615;4.046432062913358;6.511696324061518
A;10.1;0.3180561002673934;-0.037641410745150594;0.2107059672668824;-0.5218393018183324;3.370526121315032;1.691623341768918;3.9392329058364157;6.413704138111462
A;10.2;0.32029269601901894;-0.0431417550645247;0.18932082406489012;-0.5405946544195007;3.3416883404377473;1.700079411806799;3.781739339746087;6.306733533438355
A;10.3;0.3237657324214869;-0.04915987887518428;0.1676678649456179;-0.5609703797264863;3.302308726551787;1.7049664374866629;3.575716577065085;6.1925837206891385
A;10.4;0.32831591515366104;-0.055557881959361545;0.14527113786999704;-0.583934251190691;3.2529818776414126;1.7067120667698006;3.329019182097738;6.046010682526252
A;10.5;0.33375689243585915;-0.06259542149408374;0.12163290662907195;-0.6104758783985457;3.1947248722542483;1.705885124170684;3.0413744497677526;5.854688141517387
A;10.6;0.34006637277999463;-0.07013441382450185;0.09712585701623737;-0.6397875983224596;3.1280947034059614;1.701776283421968;2.7264360239061673;5.635199869255655
A;10.7;0.3471847356947486;-0.0769064350129162;0.07231600849220139;-0.6705034975470022;3.053519686824252;1.693604643687683;2.427557300692616;5.43160856430945
A;10.8;0.3552867650920497;-0.08429881084076533;0.04769365417561422;-0.7018587430011672;2.9720620832626836;1.6806901202135813;2.1170136492310836;5.285810310513551
A;10.9;0.3645804103648101;-0.09543844123470091;0.023858813468412916;-0.7328895178908222;2.8849105509158246;1.662367622146134;1.724741250450404;5.256847427359111
A;11.0;0.3748998785058005;-0.10675791603863782;0.0010153521344965315;-0.7626926667931423;2.792890802132734;1.6393081345279805;1.347808857667884;5.210634255971407
A;11.1;0.3860439381637814;-0.11253889783754605;-0.020802912043323074;-0.7907094609954243;2.696783673547769;1.6126312212674865;1.131722008345124;5.000266796225563
A;11.2;0.3977753337338097;-0.1163204672982614;-0.041237036811237325;-0.8157514113043236;2.597615195788246;1.5830327345198565;1.0019320592610155;4.787313516131992
A;11.3;0.40978991675652;-0.12366580132311296;-0.05998758094964224;-0.8367020464325527;2.4963913705486505;1.5513707540849107;0.8342441696355182;4.6828790458907426
A;11.4;0.4221408907251181;-0.13238013189722833;-0.07702924818876873;-0.8539615599948034;2.393993852984258;1.518355532635873;0.669985723963213;4.621653262413219
A;11.5;0.43494069759431736;-0.13911518630715816;-0.09236716795277632;-0.8683535227045143;2.291359580815482;1.4844682182397433;0.5722005594698073;4.533758439067195
A;11.6;0.4480334339929352;-0.1446203112005211;-0.10623019754849385;-0.8804960340814579;2.1892367615058386;1.450724477235772;0.5129429901574528;4.4255207623991915
A;11.7;0.46129413303342287;-0.14989811133451644;-0.11889303639228871;-0.8911964591256915;2.088282572367356;1.4180808307599868;0.4552681251963071;4.324243102939141
A;11.8;0.47449077173762505;-0.15463313473069876;-0.13028620049866904;-0.9009163536732873;1.989631207914705;1.386609417737312;0.39840548227497674;4.2239904509616055
A;11.9;0.48729988285128556;-0.15861648050944765;-0.14028920267749442;-0.9098549977991842;1.8944635327727342;1.3562183086729103;0.3451163222472666;4.1221682127029355
A;12.0;0.49983114340468965;-0.1617464865047742;-0.1487314316511071;-0.9186198825857232;1.803531853381104;1.3266605507775628;0.28100897323636853;4.025933800515536
A;12.1;0.5122386390683024;-0.16390250038511103;-0.15540898830142844;-0.9277724054177711;1.7175815145653894;1.29759832079668;0.19298262205898284;3.9427691909316374
A;12.2;0.5242860694869932;-0.16524677005050314;-0.16038546361143557;-0.9371211766858103;1.637177354814999;1.2693305740800156;0.08620825110353476;3.8709498783575795
A;12.3;0.5357482043921707;-0.16598883242554172;-0.16378586871385722;-0.9462640457132055;1.562578439134933;1.242282143211252;-0.030555479131924985;3.804770857997157
A;12.4;0.5462806569137659;-0.16639707286040442;-0.16570455401422643;-0.9549629784434762;1.494613092030377;1.2168001710245964;-0.14909428209706274;3.7432877964970626
A;12.5;0.5554959071302452;-0.16678738344941646;-0.16628600322307222;-0.9628973865472886;1.433964472593736;1.1932338640158708;-0.25902329385246703;3.690289573681467
A;12.6;0.5635344663118053;-0.1671574732611759;-0.16554913169249671;-0.9698303938378577;1.3802030851185831;1.1715749426587418;-0.3580056862093477;3.6389671079879395
A;12.7;0.5706730168690023;-0.16741987158148586;-0.16349176193640336;-0.9756661093677043;1.332805113503231;1.1517632460225922;-0.44708675706492307;3.5768012087541727
A;12.8;0.5769953081173096;-0.16765866980902308;-0.16028056049272196;-0.9801064377135944;1.2907951695325313;1.133682747207067;-0.5220327044924932;3.5198498922511674
A;12.9;0.5826529989030708;-0.16791820331326335;-0.1560910694645888;-0.9828688150018712;1.2530008991016333;1.1171535029858326;-0.5794887075716971;3.4889904443465483
A;13.0;0.5877114340396394;-0.16825310557994536;-0.1510922106843675;-0.984201936023917;1.2197837441869757;1.1024587676771336;-0.6210289164383348;3.4717857292625673
A;13.1;0.5921892035771856;-0.16876392852166214;-0.14550472873245482;-0.9845238265438265;1.1917702808812234;1.0899505134649685;-0.649238974383109;3.4501411685954513
A;13.2;0.5964085272459263;-0.16931668573953326;-0.1393922356977937;-0.9840526072864441;1.1688990732088371;1.07967201149796;-0.6680878695658826;3.4141998650293655
A;13.3;0.6007079783814916;-0.1697652851128876;-0.13280788571911176;-0.9830711258103116;1.151220390907606;1.0716955380420166;-0.6823368796986986;3.3604224856266938
A;13.4;0.6052297809102334;-0.1702276773212764;-0.1260467440696191;-0.9819115272367253;1.1380894180199335;1.0658532837320365;-0.6940841936691702;3.289535560786879
A;13.5;0.6101227230940865;-0.1708198966942147;-0.11940787273599048;-0.9808212799489047;1.1283113473862727;1.0617100836786522;-0.70467087809735;3.1995895636668923
A;13.6;0.6153386852327833;-0.17175180348559227;-0.11319469809237581;-0.9802535851991309;1.121910052201618;1.0593948896447334;-0.7157703323744021;3.1202214437150944
A;13.7;0.6207569594091354;-0.17326514947517038;-0.1077153451341702;-0.9806631255695013;1.1188316239756277;1.0589806739470273;-0.7287305139120366;3.0878480190088826
A;13.8;0.6265916913208643;-0.17521376439308747;-0.10298165823625112;-0.982005347194951;1.1173914962650435;1.059607322575997;-0.7449231602665595;3.0878772002492076
A;13.9;0.633081468883414;-0.1773552177851704;-0.09889646528191169;-0.9840935071990279;1.1159258583243234;1.0603806521222896;-0.7653652524209473;3.0957810218311406
A;14.0;0.640330723628015;-0.17959470163543312;-0.09548462485880693;-0.9868568697196102;1.1124036044152559;1.0602470738325325;-0.791343766689735;3.102228014563654
A;14.1;0.6484610089519377;-0.18179637874420784;-0.09273070851123626;-0.9901509426849655;1.1047287565049333;1.0581017755398578;-0.8239898558460294;3.0969416868307555
A;14.2;0.6573730466897855;-0.18390682022545413;-0.09056943229899246;-0.9938874512165601;1.0932396364083081;1.0540859300057326;-0.8627340442125558;3.0808724184678593
A;14.3;0.6668410047386617;-0.18596282636086592;-0.0889535534408686;-0.9980398791228625;1.079037140712887;1.048741954025813;-0.9065028790084312;3.059841902712003
A;14.4;0.6769120385241068;-0.18777960603174146;-0.08772178654030964;-1.0023718706327358;1.062405685631564;1.0421475090169683;-0.954526080909191;3.035368119916793
A;14.5;0.6876189161689888;-0.1891800384343174;-0.08668245163422754;-1.0066307143637727;1.043954557659223;1.0345443343022362;-1.0056142774485817;3.0097209885409524
A;14.6;0.6986940280695285;-0.19032044785533545;-0.08583616680087676;-1.0108461312176942;1.0241577981580523;1.0261715667084168;-1.0590647335063412;2.981952945775937
A;14.7;0.7098362234033533;-0.19141045031612158;-0.08521418939922243;-1.0150910100089146;1.0031607463529566;1.0171112235953335;-1.1144567819572766;2.949818666152508
A;14.8;0.7206638172045494;-0.19268357261742786;-0.08476180569035015;-1.019405133514397;0.9822084606937208;1.0080110399674977;-1.1698647122726733;2.9136584503532497
A;14.9;0.7307392423326946;-0.19441974734732495;-0.08444254800750779;-1.0238626977470426;0.9625628502589372;0.9995354051244826;-1.2234018600663645;2.8745225666339373
A;15.0;0.73991367861796;-0.1966542321114515;-0.08416669398558811;-1.0283864451245543;0.9438961960725111;0.991493906615605;-1.2746208799581866;2.8336939387930244
A;15.1;0.7481435584986258;-0.1993324273832021;-0.08382083463122995;-1.0328449821648953;0.9256893136651332;0.9835913889641157;-1.3232219558045009;2.791659251120763
A;15.2;0.7552254534653878;-0.20254809117789505;-0.08343375040413;-1.0372563460942104;0.9072895824712957;0.9754832873548223;-1.3699396514646078;2.7508019630565173
A;15.3;0.7610382253303921;-0.20634353905479555;-0.08308340921427466;-1.0416491767913587;0.8878292571638587;0.9667207361436825;-1.4159936710165024;2.7164460620201467
A;15.4;0.7655868826337867;-0.21066727956801845;-0.08275606875910808;-1.045969534147354;0.8678259838412533;0.9575832005075622;-1.4607477202581898;2.6860415955990367
A;15.5;0.7689019320595426;-0.21547199865348046;-0.08245715277861887;-1.0501849554009055;0.8481756718981988;0.9485478225316424;-1.503339759695204;2.651382614386499
A;15.6;0.7712933004369056;-0.220515902750171;-0.0822681560875752;-1.0542390435041662;0.8289263435541537;0.9396664578864868;-1.5438066842186509;2.620287471019563
A;15.7;0.7731103841362684;-0.22553682735343905;-0.08224279935011254;-1.058062172743039;0.8102336174838823;0.9310466892998809;-1.5819352505717508;2.611836957815405
A;15.8;0.7744412254751305;-0.23052800778490776;-0.08251272953749682;-1.061742187466084;0.7922577775956592;0.9227670330664518;-1.6182950985482119;2.6018207094052337
A;15.9;0.77536880406399;-0.235495359508346;-0.08322567720496561;-1.0653983467218167;0.7748249163429302;0.9147406653548842;-1.654022958871438;2.6000880363417647
A;16.0;0.7758132097849363;-0.24052031700459628;-0.08427032525857754;-1.069039413711992;0.7586532799043629;0.9073356863439633;-1.6882404422905484;2.5988937201205102
A;16.1;0.7756246316159691;-0.2457256802458231;-0.08549584147105076;-1.0726733935877872;0.7444814294920917;0.9009343858338656;-1.7200154859219474;2.599006266102094
A;16.2;0.7750439744714542;-0.25090738729623663;-0.08687063879317387;-1.0762829958982378;0.7314289197948396;0.8951622932268583;-1.750589404333472;2.597052962380395
A;16.3;0.7743891032109502;-0.25577670957206067;-0.08834319527489098;-1.0798160524068494;0.7184143218941514;0.8895645035075267;-1.7811897119964961;2.590653871132003
A;16.4;0.7738053519378463;-0.2602060257144612;-0.08999339165399574;-1.0833253527897284;0.7044688182205471;0.8837148949087302;-1.8137070613402007;2.5743047648109845
A;16.5;0.7735093706288733;-0.2640227130322052;-0.09196931340291063;-1.086884177156451;0.6884480139444792;0.8771005994523394;-1.8503378682442104;2.544507859265132
A;16.6;0.7736125780852124;-0.26708781464409864;-0.0941819199661356;-1.0904436181088721;0.6705343789999118;0.8698754751793274;-1.8901540330970263;2.501543457876133
A;16.7;0.7741217956347684;-0.26935070307878145;-0.09652829609878655;-1.0939599703887666;0.6514596991232541;0.8624373414073135;-1.9312369135085;2.4425107885898454
A;16.8;0.7754471155312307;-0.27050607463282567;-0.09907983556864779;-1.097423120830288;0.6309110717074455;0.8546748005736523;-1.9732384372087288;2.3774435840857207
A;16.9;0.7779561435003411;-0.27028750058029455;-0.10183312866267995;-1.1007929884503478;0.6087972349769079;0.846565092714816;-2.0152369788406728;2.323959411543543
A;17.0;0.7815308119013525;-0.2688474738746652;-0.10490047622949805;-1.104165170684344;0.585802163792709;0.8383543560774557;-2.055919627663538;2.2689525757191302
A;17.1;0.785963543068148;-0.2664222705581268;-0.1084103325478063;-1.1076592208204554;0.5625103141902367;0.8302148089630682;-2.0944154341460384;2.1948103068863576
A;17.2;0.7907257458799095;-0.2634155959324603;-0.11196059160511813;-1.1111755846519902;0.5405105039617464;0.8228185103825941;-2.1274426622033826;2.1172610009510815
A;17.3;0.795201783204508;-0.2602950623117947;-0.11512400070863789;-1.114608609240098;0.5214761400485722;0.8168762411931656;-2.151792328698756;2.050219889023204
A;17.4;0.7992708954863371;-0.25716534102748795;-0.11770352080987297;-1.1178931198042017;0.5051301857619466;0.8122225504797136;-2.1678808338697286;2.0045726981696537
A;17.5;0.8029325486496841;-0.2540417749175334;-0.1194908352556604;-1.120933894742617;0.49089923971712085;0.8085782559447457;-2.1768054047283147;1.9978452285305852
A;17.6;0.8062712489397937;-0.25095091606930797;-0.1208164886048541;-1.123866169238798;0.47811993492117527;0.8055964174937765;-2.1809174881442597;2.0051516503055358
A;17.7;0.8095421023160329;-0.24782431088933313;-0.12225142106088634;-1.1269170211652122;0.4658034871896935;0.8027706233690933;-2.1834448935472235;1.9882303217916213
A;17.8;0.8127761816905803;-0.24473162468970955;-0.12377163833729792;-1.1300487350668051;0.454530906293759;0.8003708699887783;-2.184545031564213;1.9593372424278848
A;17.9;0.8159898513981608;-0.2417735586757924;-0.1253665199605463;-1.1332325967540615;0.4452758282164802;0.7988353451243894;-2.1837490970709914;1.9403933578567567
A;18.0;0.8195548466506191;-0.23880457858013168;-0.12741090167259195;-1.1366150753713924;0.4377947628882171;0.7979844839444628;-2.1822119926970127;1.9252277510542803
A;18.1;0.823761487610971;-0.23571980390132938;-0.1301139967818533;-1.1402792070867276;0.4320012287869588;0.7977113684301195;-2.18051105828212;1.9063996463233508
A;18.2;0.828833742234861;-0.23252185485978374;-0.13404046250542215;-1.144483950258815;0.42784344516626166;0.7978533499241941;-2.1796356211866694;1.8856902146217553
A;18.3;0.8349770181661035;-0.22920725649915083;-0.13977481784337495;-1.1495093794163667;0.4248773749132786;0.7980542606073087;-2.1809741445528137;1.8643337100068675
A;18.4;0.8416965580747608;-0.22614866266792374;-0.14665676901212762;-1.1550927019995518;0.4242207644236447;0.7988153738749597;-2.1827003364929687;1.843992758840269
A;18.5;0.8483820469128328;-0.22376538475543603;-0.15381088545926494;-1.160864646906704;0.4270619855093196;0.8007225008645614;-2.1828812978045335;1.8267278709764811
A;18.6;0.8548649977702584;-0.22209038346658763;-0.16073129567510935;-1.1666289527128244;0.4323532340110363;0.8033122074913225;-2.1823322026404757;1.8122779453564029
A;18.7;0.8609944560473997;-0.2211003063606706;-0.16679357561910288;-1.1721220743454994;0.4388574723551611;0.806090953649087;-2.181970706837689;1.799894862162212
A;18.8;0.8670049128343565;-0.2205930915916161;-0.17208846686435753;-1.1773233427301886;0.4450069707404006;0.8084379563033156;-2.184884536545361;1.787900829408274
A;18.9;0.8733180278131542;-0.22025568656749725;-0.1769876429767331;-1.1823435624535004;0.4489400036630495;0.8095671647958014;-2.1946834186305986;1.774743445462886
A;19.0;0.8797869569517677;-0.22012013858607263;-0.18094978270693787;-1.186870819693257;0.4511156902360443;0.8099117185365762;-2.210867663697805;1.7606921856464444
A;19.1;0.886207089307114;-0.22027348891691734;-0.18348877065028624;-1.1906220797208398;0.4525600918844728;0.810158946330561;-2.2320827767038716;1.7440634265067405
A;19.2;0.8926460723113605;-0.22063602552834252;-0.18456409226894407;-1.193680439833465;0.4530993498711447;0.8101550349305032;-2.257165677301095;1.7254687201832788
A;19.3;0.8989508057848735;-0.22125263081301524;-0.18391899908621478;-1.196074630512937;0.4528136261252224;0.809830761117485;-2.2837742908872323;1.7151668560651052
A;19.4;0.9052079147120616;-0.22206806540718263;-0.1821957486458917;-1.1981779852655607;0.45142307165451684;0.808909088680014;-2.3115508556906925;1.6920286763546224
A;19.5;0.9115210963662799;-0.22303424509853867;-0.18014947584964505;-1.2004479406702988;0.4483276935119503;0.8069009793387991;-2.3406717234675334;1.6749834891037916
A;19.6;0.9168484588064563;-0.22470608524757849;-0.1767590743662354;-1.2024755610214732;0.4446426840501152;0.8044286073231491;-2.3674261557258887;1.6576980656138447
A;19.7;0.9200526982218319;-0.2276594930838088;-0.170990704400251;-1.203772610858879;0.4415728477556901;0.802250788622473;-2.388228327792074;1.6433163648629476
A;19.8;0.9205713911337914;-0.2322149484538484;-0.16204669739457875;-1.2041503908318196;0.4388776475404296;0.8001687430562262;-2.4018341924573545;1.6324787972570587
A;19.9;0.9178550963168925;-0.23868612604399045;-0.14898735143169958;-1.2033330060965852;0.4363499483235203;0.7980549281463306;-2.4070638716608816;1.6267154054827089
A;20.0;0.9123228590506303;-0.2467080703659056;-0.13310819348911895;-1.2017495239367475;0.4328308712743967;0.7954390206042117;-2.4064417712168553;1.6239277351533319
A;20.1;0.9051034190005743;-0.2555722147829484;-0.11652433339973116;-1.2002269976790385;0.4267439375266345;0.7915126675312276;-2.404322374883766;1.6206388212900655
A;20.2;0.8961798343466197;-0.26523245167889087;-0.0994732077564684;-1.1986291612107898;0.4188587834667574;0.786992065829855;-2.4002539477221005;1.6179400546595257
A;20.3;0.8856105762573416;-0.27555881611330574;-0.08248238138871382;-1.1968774179086532;0.4101956855133144;0.7827450069585146;-2.3933871442702217;1.6169892234738557
A;20.4;0.8752254641309835;-0.28584471458786176;-0.06691382413587299;-1.195896196687596;0.4006422505238409;0.778169982407879;-2.3866845556115677;1.6162254837050603
A;20.5;0.8667450540027262;-0.2956110931587732;-0.05342655227906098;-1.1964572000629177;0.3904495098070789;0.7727356564164705;-2.38284214037773;1.6145836862155036
A;20.6;0.861830255139575;-0.3038703077804102;-0.0448270347507157;-1.1997994223730422;0.3785389796490213;0.7655103168416891;-2.38497532534539;1.6085154581995587
A;20.7;0.8622817923546392;-0.3095635886280756;-0.04388558213811659;-1.2071854450360064;0.36348785255244415;0.755318636160507;-2.3972825203807724;1.5939115511618542
A;20.8;0.8671027421080019;-0.3135760906018901;-0.0485029198601051;-1.2177522864511896;0.3468326179006957;0.7431419221243859;-2.418764760014049;1.572572761634733
A;20.9;0.8741282393664758;-0.31710130532159475;-0.05605413326182718;-1.2299915783431317;0.3304364991060238;0.7306584012600587;-2.4458571467503716;1.5477468356294881
A;21.0;0.883441309378529;-0.3205034282537233;-0.06398576646640812;-1.2430549478439563;0.3150935494092056;0.7181716884161364;-2.481528039436787;1.520813982473042
A;21.1;0.8948172938712581;-0.3245732543962723;-0.06897723725280817;-1.255982538622327;0.30193533717399657;0.7060327118072127;-2.528347870371297;1.4934681862741972
A;21.2;0.9063511474470601;-0.32888157420538217;-0.07262049466125368;-1.2679309490281598;0.290172876056789;0.6952649136344432;-2.5814861267782327;1.4666414630974236
A;21.3;0.9167359650145571;-0.3321485938197523;-0.07800545535566543;-1.2784837104591935;0.2784727167039384;0.686693944231779;-2.6362302905651593;1.4409963370128362
A;21.4;0.9230272177348812;-0.33619533881042063;-0.08377500426604793;-1.287036498021826;0.2683298361689423;0.6814536938113491;-2.6855298764654703;1.4178779775576853
A;21.5;0.922390976812185;-0.34240570790077;-0.0894625665959032;-1.2927328834175993;0.2607681712986721;0.6809710176172121;-2.721297830186986;1.3983512560779376
A;21.6;0.9172340153773525;-0.3489286325902204;-0.0956873500807149;-1.2962541268057028;0.2564556102687178;0.6851350835479142;-2.7469155967785923;1.3839647360993863
A;21.7;0.9111958543786582;-0.3553669760341431;-0.10127106204489485;-1.2992424868889236;0.25577855478187494;0.6918747228215872;-2.771398444308683;1.374385847708001
A;21.8;0.9073120244885238;-0.35734863719981763;-0.11206607878229673;-1.300705483524238;0.2545153925170614;0.7016419704171527;-2.796859083804856;1.3679258471653901
A;21.9;0.9088376038189208;-0.3492192545359118;-0.1336427817296284;-1.3000097336061651;0.2508833648434298;0.7159063456941018;-2.824598665414063;1.3642193784581405
A;22.0;0.916720759994464;-0.33868594639252897;-0.15995743265933945;-1.300067431974308;0.24281809394421838;0.7274993279581174;-2.8674662741464636;1.35423786181851
A;22.1;0.9312880339246292;-0.33234328159596477;-0.18351867570195027;-1.301376800435133;0.22890533170637925;0.7330157609172895;-2.938599826890627;1.3254370927341401
A;22.2;0.9530771227138523;-0.3294844151063092;-0.19439072619137351;-1.3072692609999006;0.22457643119219176;0.7364572710927799;-3.039558418899395;1.2813008525984524
A;22.3;0.9815808716988902;-0.33899468710647646;-0.1853790781769112;-1.3261440838846628;0.23839615031472258;0.724956759891135;-3.177633869055747;1.2242237592430418
A;22.4;1.017757258534129;-0.3462741127821891;-0.15871418647187585;-1.3477834728798932;0.2778415614572675;0.7158737825368338;-3.353631092800659;1.1474861196632824
A;22.5;1.0648958897672511;-0.3235329283130346;-0.12512685594164275;-1.3561834385156508;0.3341789929661593;0.7556172313669988;-3.5323603478994046;1.0431036565482237
A;22.6;1.1213501622073954;-0.3146580109653933;-0.1086425579007217;-1.3670907283318599;0.3598279050052022;0.7697430116050968;-3.7303161695932836;0.8843417291448441
A;22.7;1.1791170136875184;-0.33303163532350616;-0.11351279819498843;-1.394664570703644;0.34263034244055807;0.7081290013988273;-4.034699614076394;0.684886428815148
A;22.8;1.2437487289472529;-0.36213727075596047;-0.16220505281831524;-1.4350274470725672;0.21622492573528973;0.6465950621514386;-4.349209491003765;0.45642963411721765
A;22.9;1.3270281233749992;-0.4054866841538483;-0.31435285859883916;-1.4930959856829833;-0.014435678776643535;0.5843851283689995;-4.385465910196692;0.12991694246700636
A;23.0;1.4084770019012967;-0.3542623971558658;-0.4829697312911567;-1.530377539458016;-0.07521652086591057;0.5065323820898348;-4.506217879540138;0.02615368851105841
A;23.1;1.461265195058721;-0.03261334937966135;-0.5645992313073813;-1.552062409820139;0.05374299624106538;1.078475208776344;-4.61585915057532;-0.08221053064166857
A;23.2;1.493765164052924;0.08218140867771655;-0.6401812181006927;-1.539986845565683;0.5014554424911862;0.8495095457899957;-4.620279893528324;-0.08736918760938502
A;23.3;1.5199649957440526;-0.01949307058599903;-0.9202527409140083;-1.6512756164081452;0.13299612875697667;0.2744355166166527;-4.622194084172563;-0.006707470919878666
A;23.4;1.5420234957828527;-0.14339810649692394;-1.4231629846166631;-1.9714112969417252;-0.563244991222685;0.09208568664947119;-4.5752926853326565;0.10198007528415627
A;23.5;1.562215752009049;-0.17866009464007693;-1.9212360443173058;-2.303849342645903;-0.7796939877779835;-0.10856938674589205;-4.526615009867071;0.17278256220735808
A;23.6;1.5781368366009814;-0.13845570075779387;-2.3548117335275105;-2.5990152883143756;-0.7730264575614619;-0.19078236855810657;-4.475472337450526;0.2569260131973712
A;23.7;1.5855147850983229;-0.13388109985040497;-2.545374641093126;-2.687424448679169;-0.8494721978783147;-0.25143642135760774;-4.384127252412327;0.31974011203234937
A;23.8;1.581603348589024;-0.14754852563798368;-2.616204096282919;-2.6716825374375746;-0.9678253398264044;-0.3143270343000193;-4.362518403682995;0.37988680714576056
A;23.9;1.5634403406339892;-0.16781752819192905;-2.7738014442966707;-2.6947598674715323;-1.0739070428064912;-0.3666706606422405;-4.32513315136791;0.3868925155044363
A;24.0;1.5333085079899604;-0.1958578278895109;-2.950406445807912;-2.7894987467168506;-1.1864436517870909;-0.4312111180100426;-4.3129786860675985;0.42567304006509293
A;24.1;1.4956951568299974;-0.21932489732513627;-3.038210983213999;-2.863791663596293;-1.3155354757796607;-0.520692215905037;-4.332591493812516;0.4463710320625311
A;24.2;1.4516625477682161;-0.24710953965533733;-3.068702401761372;-2.9369701395143024;-1.433265678576972;-0.6170423654006392;-4.350033129244685;0.4667883788304257
A;24.3;1.4026150184380637;-0.2970706148360242;-3.082238891194748;-3.0756058962419304;-1.5278788543692832;-0.7257777267245729;-4.383617580638673;0.46585855472421644
A;24.4;1.3518025260033408;-0.35091302563874677;-3.083627098313873;-3.209995678691868;-1.6063387789601948;-0.8362867190422859;-4.422113651147364;0.4519838811716786
A;24.5;1.3017239023433427;-0.38140696262996227;-3.0794545990312314;-3.2955374599115856;-1.6870609608678917;-0.9462206643285634;-4.470951594982456;0.43580176931881326
A;24.6;1.2563665194738418;-0.3997387599629609;-3.0850480419257664;-3.2896915656763057;-1.7716078399812287;-1.0468414561772672;-4.529957498260914;0.4160034140524249
A;24.7;1.219777431831178;-0.42499672796285193;-3.1130013923510553;-3.2648716420254744;-1.8607246838301548;-1.1317486408649475;-4.600557915742291;0.3906863120432856
A;24.8;1.190534523820691;-0.4502653138677785;-3.1607975935341415;-3.3409915113909285;-1.9532626013346208;-1.202665853928189;-4.6857503572976364;0.3631775182963739
A;24.9;1.1655803071487003;-0.46567423983579975;-3.2215903131293797;-3.306083798450737;-2.045343894027455;-1.2617512280084096;-4.785647181015629;0.33595768677036425
A;25.0;1.1437985505456876;-0.4754468190654819;-3.2892176189128466;-3.2684979868121524;-2.134936607470918;-1.317317804704589;-4.903690393381976;0.3104347776774104
A;25.1;1.1234956291707794;-0.485317632832432;-3.3549321312465206;-3.2590283135742766;-2.2195052448348798;-1.3792476562049636;-5.030609613459603;0.2869148485082533
A;25.2;1.1031593621145923;-0.4952540713843587;-3.4159956813894357;-3.2679807088981065;-2.2967047360605553;-1.4421377342031019;-5.136772590268413;0.2596365726275614
A;25.3;1.082197217040475;-0.5046026186830822;-3.4728246527616844;-3.2883004188335736;-2.3654780508966415;-1.4979095090854095;-5.2867910405114005;0.23772974005389527
A;25.4;1.0579571134944723;-0.5157669186475372;-3.5191493828749185;-3.2413034541858465;-2.422591419199041;-1.5424200994980068;-5.406087509828165;0.22710443209089104
A;25.5;1.0277791877191682;-0.5310520045558546;-3.549008263219944;-3.2243821263178023;-2.4649277128194638;-1.571324498057835;-5.405170393773363;0.17795694782533852
A;25.6;0.9931526776730708;-0.5495856881771539;-3.5648884850490616;-3.242815485408405;-2.4948676482174514;-1.5875595019555473;-5.3457387129302205;0.12055836142485236
A;25.7;0.9565528753832492;-0.5698781015374331;-3.5709918234507807;-3.2448934806558465;-2.5161725209599086;-1.5966550124877663;-6.0333522007511675;0.26964350678242227
A;25.8;0.9196196372933417;-0.590732167884877;-3.5711927145282885;-3.2524558655094373;-2.5311355361355408;-1.6009994710152569;-5.930172269398558;0.21239015496308453
A;25.9;0.8844847401073331;-0.6105573191088043;-3.5704124706570965;-3.2676646521742883;-2.542646800385215;-1.6032803379613714;-5.964427486109035;0.20186335109523146
A;26.0;0.8520998023891287;-0.6289281477146119;-3.5701064523439694;-3.2846772449887713;-2.552288725569352;-1.6049954184363215;-5.983123839205908;0.16855823945848356
A;26.1;0.8226433613007732;-0.6459393568347673;-3.570165502307827;-3.2943700760108725;-2.560707611473863;-1.6065108102790628;-6.054425002451148;0.17495981593843682
A;26.2;0.7980005278275728;-0.660581392811172;-3.573021269208922;-3.3014546910913656;-2.57095491047368;-1.6099113430351817;-6.180233461889659;0.2049372109440076
A;26.3;0.7799484991521314;-0.6719395622321974;-3.580863273366388;-3.3096572201979817;-2.586087863871904;-1.6172338721773454;-6.23923908661365;0.22484211959733535
A;26.4;0.76805164707684;-0.6801281361809522;-3.5930574802419706;-3.3260576123583836;-2.6062630578451733;-1.6283093406843676;-6.261216697672183;0.24000102647896102
A;26.5;0.7614677140061495;-0.6854399162085096;-3.608249718453816;-3.3352827692489933;-2.6310761075251414;-1.6425552912373178;-6.2724355087194255;0.25633247881565896
A;26.6;0.7590711328142276;-0.6885230009454298;-3.6253180288626328;-3.3437775627589317;-2.6598976366817433;-1.6596771119505138;-6.266627210196803;0.2713611489252325
A;26.7;0.7593405951324197;-0.6902565250500322;-3.6426658396107126;-3.3539364952258666;-2.691420615838149;-1.6790051099699597;-6.240785261788413;0.28222369786585794
A;26.8;0.7621289311598951;-0.6908019626846613;-3.6591013300772346;-3.3644746505447856;-2.725782861955937;-1.7006822952585903;-6.198586972264845;0.2952307828409377
A;26.9;0.7676239637980803;-0.6901633244879891;-3.674000839344567;-3.373052018503864;-2.763404146298663;-1.7251135942117937;-6.143484153650082;0.3157741177718186
A;27.0;0.7750906888268253;-0.6886863202305727;-3.685731552676046;-3.3793946955373024;-2.802945156694532;-1.7513165489265894;-6.077606999015416;0.3386067734012021
A;27.1;0.7838770343190596;-0.6866419401820414;-3.692753370639133;-3.3852074107959353;-2.8430259433199248;-1.7781636146376059;-6.002688505146445;0.35832476958364795
A;27.2;0.7934128171623231;-0.684313014607118;-3.695995886776107;-3.389327700198116;-2.8827734024811327;-1.8053061161984711;-5.921022733939608;0.3679518277074258
A;27.3;0.803005522962522;-0.6820198512978065;-3.6970981544679016;-3.3881410053187526;-2.9213224565983857;-1.832414201030441;-5.835231956447413;0.3499696844266725
A;27.4;0.8127571813785148;-0.6797299141704679;-3.6970363008796645;-3.3934692006377687;-2.9590291944894687;-1.8595598449471595;-5.745830123934521;0.3249046226028924
A;27.5;0.8228914620783208;-0.6773711280033483;-3.6970754673445616;-3.3938723371375494;-2.996514783990141;-1.8869899727813155;-5.6533509156422115;0.3265960640665253
A;27.6;0.8328479283517045;-0.6751337445743282;-3.698197557507145;-3.395696977716984;-3.0335563130892838;-1.914230438237879;-5.561152741363599;0.33024479873760676
A;27.7;0.8420945223322279;-0.6732030439914022;-3.700870317399211;-3.3948337418443075;-3.069852567055642;-1.9406744214061533;-5.4723697239942135;0.2976135241588216
A;27.8;0.8499433326175359;-0.671929386180086;-3.706482284174887;-3.4006147994186833;-3.104553589066255;-1.9659208371752896;-5.391245807793698;0.24163189060539336
A;27.9;0.8556481234128368;-0.6716954917919642;-3.7163295742016556;-3.4175578868999046;-3.1364870317795224;-1.989556075077153;-5.322526399609628;0.1856874690245581
A;28.0;0.8595079801657318;-0.6725045639760511;-3.7296663605671916;-3.437821764180254;-3.16522777228167;-2.0113291890737344;-5.2654610663632955;0.12564461760937692
A;28.1;0.8620658393342735;-0.674274236184421;-3.745286269113303;-3.450376709562169;-3.1903522488809783;-2.0310770063071253;-5.218318178348646;0.052532750471116905
A;28.2;0.863486616430439;-0.6769297175850092;-3.7622621661904176;-3.460742030737484;-3.2110719709640505;-2.048615240034413;-5.182313341999566;-0.021374303190852355
A;28.3;0.8640619585696304;-0.6802999314472965;-3.7794450256321404;-3.478922716142897;-3.2268815709329353;-2.0638296519928843;-5.157924757667968;-0.07851266025234767
A;28.4;0.8637492292769352;-0.6843883489156249;-3.7965353613251698;-3.5003541199091615;-3.236793997870477;-2.076606620053273;-5.147651575285696;-0.1270982577672486
A;28.5;0.8623740102749716;-0.6892219579864163;-3.813592040210009;-3.5187010095704614;-3.2399685062782027;-2.08691151011352;-5.1543934866955805;-0.18126226673028886
A;28.6;0.8604686888608563;-0.6945460704938494;-3.829892136195802;-3.5344846037366113;-3.237213614392745;-2.094850696654752;-5.175083250696747;-0.23027266512887948
A;28.7;0.858598920732294;-0.7001093641979542;-3.844742403852848;-3.5487812468551048;-3.2296950999044363;-2.100496726768083;-5.205515200684012;-0.2622572627011215
A;28.8;0.8569696159449335;-0.7057183826024737;-3.858001778825304;-3.561123917952424;-3.218706607500502;-2.10415439726494;-5.243131139098548;-0.2758966172098996
A;28.9;0.8557970924384075;-0.711172155058646;-3.8695329665057145;-3.571289392137217;-3.2057827978889257;-2.1061205708424815;-5.284708278810621;-0.28031468470047377
A;29.0;0.8548244660828122;-0.716578916143642;-3.8794584228858233;-3.579845030902464;-3.19128523680844;-2.1061635476798752;-5.329581359771847;-0.2759217049998874
A;29.1;0.8536315088444343;-0.7221268574846743;-3.887991629062863;-3.5874828998442427;-3.1753045350533107;-2.104089831617392;-5.377871324042027;-0.2670942518819727
A;29.2;0.8524149258439814;-0.7277757841987856;-3.894683477095294;-3.5941073466874514;-3.1585937324724385;-2.0996456159391523;-5.426076220080323;-0.2504454587236411
A;29.3;0.8513751234187928;-0.7334992893291808;-3.899036942648761;-3.5989923236129258;-3.1417807951386734;-2.0926176022711207;-5.470757396337793;-0.22052553355733928
A;29.4;0.8505527520976853;-0.7392258095222971;-3.9007556043789617;-3.6018072000916255;-3.125729648672825;-2.0837495725358166;-5.509518393413586;-0.17862509841869456
A;29.5;0.8500578559240304;-0.7448229159691214;-3.899590502732748;-3.6042858570468703;-3.111526857846242;-2.0740508827518034;-5.539763979237132;-0.13094886866690617
A;29.6;0.8494556886704623;-0.7504254561600506;-3.895846931438548;-3.606111450394249;-3.099273261669255;-2.06429320119825;-5.562417563872168;-0.08027859011385896
A;29.7;0.8482132803250585;-0.7561923104556719;-3.8900185589026854;-3.599371312023006;-3.0890174229806817;-2.0553303907378946;-5.579224509018793;-0.018119956547323346
A;29.8;0.8464109754691681;-0.7620342760412026;-3.8824241402415374;-3.601524967243778;-3.0817207460761864;-2.0476877506973925;-5.588686521659294;0.040053849760419334
A;29.9;0.8441706746268743;-0.7678699212575539;-3.873423476745709;-3.5987831417282337;-3.0782080447608444;-2.0416818804017516;-5.589508989137531;0.06905587924774625
A;30.0;0.8416873909225399;-0.7735235223022986;-3.8632319949619442;-3.596325160307407;-3.079736394296203;-2.037973164458436;-5.580013581371083;0.10219603564914641
A;30.1;0.839269473467218;-0.7787814974282495;-3.8519827420157213;-3.59067846645841;-3.087540971053007;-2.0371508415692507;-5.558232028718792;0.1908543571367093
A;30.2;0.836678612576183;-0.7837789812500983;-3.8399862699002427;-3.583782941342237;-3.101021776284836;-2.039349495940837;-5.526393308745856;0.3007622785204836
A;30.3;0.8336228663819356;-0.7886910315321192;-3.827529546752921;-3.57799923468354;-3.119082715350359;-2.044623704551824;-5.487749138608057;0.3713186905841705
A;30.4;0.8302167321989408;-0.7935502152677177;-3.8147816952970928;-3.572522863149205;-3.140868229130305;-2.0528357907623467;-5.443425580777785;0.42309699808933593
A;30.5;0.8266033563990566;-0.798394254112317;-3.8019448413053927;-3.5661606307326656;-3.165227752792236;-2.0636704179644827;-5.394852521351936;0.42465643524681246
A;30.6;0.8231999934788924;-0.8030255819885822;-3.789057107102088;-3.559308176479554;-3.1916479286917885;-2.0772433723042982;-5.342713307033737;0.39320001282508116
A;30.7;0.820591954816519;-0.8071423604243174;-3.7761454786300663;-3.5525228576298438;-3.2198910904219304;-2.093689194910564;-5.286982242251988;0.33598374582738993
A;30.8;0.8189104725496379;-0.8106844672625148;-3.7635870956773694;-3.5459893529945306;-3.2488440658942905;-2.112641509365856;-5.230230036019777;0.27438573703112384
A;30.9;0.8182644170602219;-0.8135856906458967;-3.7517560869851514;-3.539889282044159;-3.2774876108242794;-2.133769432222318;-5.175124901773543;0.23095310727458807
A;31.0;0.8190860084554852;-0.8156511067990758;-3.741019950397906;-3.5346010768120686;-3.3054760984308325;-2.1566023626480497;-5.121820609798232;0.19943797558566834
A;31.1;0.8217118873345175;-0.8167491860599801;-3.731733365237178;-3.530475078932581;-3.3325127532190173;-2.1803717335445065;-5.070331459679844;0.16824027345327539
A;31.2;0.8266572349160719;-0.8166044144864418;-3.72375810755304;-3.5274084520961275;-3.3590351031525087;-2.2051905372362093;-5.019642829716645;0.1292810211896759
A;31.3;0.8344013006177714;-0.8149633231603172;-3.716796256484742;-3.5251579008584506;-3.3856743591041294;-2.231173934181095;-4.96828656602432;0.07361057946590714
A;31.4;0.8446464150384045;-0.8120093010114914;-3.710719328783037;-3.523572909246131;-3.4120090750790255;-2.2570715139747963;-4.9177072498851375;0.008668489419109434
A;31.5;0.8569013500041213;-0.8080154956866151;-3.7053574994879246;-3.522476951475815;-3.4375470739095184;-2.2816635767870355;-4.869885615550733;-0.05446898941138367
A;31.6;0.8707287175496369;-0.8032693534124503;-3.700592990462969;-3.5217262780947807;-3.461831184212253;-2.303561265844913;-4.825730252919619;-0.10775999952792963
A;31.7;0.8855850875281744;-0.7981144859892678;-3.696386892024544;-3.521253283942467;-3.4842901444412533;-2.321296548012679;-4.786438532792381;-0.14281673136089154
A;31.8;0.9012908784056486;-0.7926000385634454;-3.6925531917928542;-3.521000798532515;-3.505322723936319;-2.3354573412802595;-4.752098790235626;-0.16281839968436626
A;31.9;0.9177407333765406;-0.7867161403657598;-3.688927329320625;-3.520850330865654;-3.525624729797167;-2.347355354130937;-4.722155730496065;-0.174808439583599
A;32.0;0.9345286175597285;-0.7806165329915201;-3.6855961898768665;-3.5209335728091324;-3.5452225663159935;-2.357250019624226;-4.698022793296018;-0.18175915822379932
A;32.1;0.9512430696331138;-0.7744422604135076;-3.6826960290832544;-3.5213949750088553;-3.564230324037473;-2.3656247487367064;-4.681128534882231;-0.1876257571958774
A;32.2;0.967396771591314;-0.7684396509375144;-3.68039628255323;-3.52181078523765;-3.5828880682101336;-2.373364921224617;-4.671096485064342;-0.19413800220002111
A;32.3;0.9824023766917008;-0.7629373317127893;-3.6788816389791563;-3.5222741962194752;-3.601225102934599;-2.3809918596187942;-4.667681420086279;-0.2009429552855757
A;32.4;0.9959621475585528;-0.7580501212031047;-3.6781685824646417;-3.522778125531538;-3.619962047363748;-2.3899112029081446;-4.669808526486019;-0.21157401297899633
A;32.5;1.0078025842648628;-0.75389164566482;-3.678224349506349;-3.5219008309355875;-3.6398195050797213;-2.4015237878609734;-4.6761214649143055;-0.2292199897761161
A;32.6;1.0173395633912474;-0.7507980755007724;-3.6790026222105507;-3.52173354021147;-3.660268740995761;-2.4149103011021933;-4.688330660322469;-0.25145493546839376
A;32.7;1.0240896581409507;-0.7490538993504483;-3.680419124553696;-3.5266577688664817;-3.6805437284774207;-2.428537026770524;-4.708798592405849;-0.2747891459792738
A;32.8;1.0275228927390685;-0.7490158592389156;-3.682463083232376;-3.5320690703310205;-3.699818567112802;-2.4413656488577877;-4.738463548294735;-0.29533804343975484
A;32.9;1.0271951189865345;-0.751004214813881;-3.6851306908761443;-3.5305285870386425;-3.7170894778225616;-2.452096615206853;-4.778447578525614;-0.30929374725475195
A;33.0;1.023433711374189;-0.7548315129639404;-3.6883589598818474;-3.526628092460289;-3.732161345164782;-2.459981192949174;-4.829013599119434;-0.3158702696972339
A;33.1;1.0168103377160957;-0.7601620873915135;-3.6920882304502407;-3.527524002092464;-3.745121570692619;-2.464723407234677;-4.889487034303098;-0.3152505327977994
A;33.2;1.0078134953691766;-0.7667099934337175;-3.6962366902457315;-3.5305796003010865;-3.7555894365608595;-2.4652391663746194;-4.961060553978049;-0.30959309593704076
A;33.3;0.9970215756487996;-0.7741218422947181;-3.7007257489595182;-3.531751658590094;-3.7634043824501973;-2.4606503681387935;-5.044669152869961;-0.3010991257281879
A;33.4;0.9847811205589286;-0.7822223604990928;-3.7055499194628694;-3.5320008107255227;-3.768653571590177;-2.4514101024228867;-5.138292563692598;-0.2899987324701963
A;33.5;0.9713206612435341;-0.790906375317635;-3.7107207255855346;-3.5326198978746555;-3.771497859645436;-2.4383263688146037;-5.239419646552169;-0.27650413451552347
A;33.6;0.9570367624511533;-0.7999100265678086;-3.7162720624010372;-3.5333525680028175;-3.77296156904409;-2.4226702409624212;-5.3448959065835915;-0.2568148622009448
A;33.7;0.9422749888333408;-0.8089936163690951;-3.722249739468419;-3.5340100597489736;-3.774242418892955;-2.4059674419481727;-5.452073182117722;-0.23075358644511845
A;33.8;0.9271985923685033;-0.8180090612549762;-3.728646071742054;-3.534758912860554;-3.775949474721324;-2.388968037227174;-5.560248831749585;-0.20165515467411485
A;33.9;0.9119385230711355;-0.8267954883012232;-3.735474060937825;-3.535758523155701;-3.7788844838176723;-2.372634829180509;-5.670271574267105;-0.16669447181311522
A;34.0;0.8965091872596193;-0.8353302917547092;-3.7427420399048934;-3.53698825640024;-3.783397902694427;-2.35779400843559;-5.785758444881476;-0.14534716426657388
A;34.1;0.8808994846875461;-0.8436090046100997;-3.7504527331457855;-3.538406592986162;-3.7897292574447783;-2.344847413039494;-5.907508209400475;-0.16645247472745908
A;34.2;0.8652778307158702;-0.8514022728055265;-3.7587693463607668;-3.5401465922296667;-3.7996815313927517;-2.336372276081377;-6.0389248427582;-0.2093376618117888
A;34.3;0.8497879752717097;-0.8584935205322098;-3.767877669945228;-3.542361292528129;-3.815227763232453;-2.3342377806327246;-6.184189338667582;-0.23656979744729933
A;34.4;0.8346276737192261;-0.8646506974158742;-3.7778415386603297;-3.5451543578928857;-3.837630971162257;-2.337639384129048;-6.327735340191162;-0.2549671921935544
A;34.5;0.8199842710784552;-0.8696478681684928;-3.7887231554656267;-3.548643773695606;-3.868166121415635;-2.349734534159919;-6.4546322985373115;-0.2996734596639825
A;34.6;0.8056791738916346;-0.873615648899945;-3.8004996093125665;-3.552869543992346;-3.9069980708893817;-2.3679550128617417;-6.559233306198446;-0.35830447685253497
A;34.7;0.7914298361176119;-0.8768074998923338;-3.813075310201024;-3.5578136228001505;-3.9535227663505683;-2.379887831551446;-6.653429347518684;-0.36893716174338675
A;34.8;0.7770373735274966;-0.879350821741931;-3.8265202925143735;-3.5635582806747905;-4.008367359155318;-2.4009132378431293;-6.795920576822021;-0.3984325351184099
A;34.9;0.7622908644475096;-0.8814124704685371;-3.8408751387995124;-3.570156007057823;-4.0718729624418515;-2.4588355181066426;-6.860464478500526;-0.6066840247893818
A;35.0;0.7470874245418532;-0.8831605328746267;-3.855969612223829;-3.5774946395777754;-4.14258034129356;-2.5251867354983957;-7.3660441550611155;-0.7414644642339017
A;35.1;0.7314737839860838;-0.8846851672529864;-3.8715926100525437;-3.5854268908195213;-4.218823796676805;-2.5603611511220135;-7.227484515957568;-0.8624676871614293
A;35.2;0.7154644264864854;-0.8861973450137614;-3.887384545146707;-3.593718921525142;-4.29814061811058;-2.582998430638595;-7.184712382181561;-0.8432367855002335
A;35.3;0.6991648131282037;-0.8878816680672742;-3.902914210555848;-3.6020930575076946;-4.377741879920724;-2.6222530772234403;-7.247980317562379;-0.8629854634161719
A;35.4;0.6830821048116485;-0.889573521067538;-3.9179699559678505;-3.61042394622953;-4.457021748209509;-2.6871534172702947;-7.396143417162346;-0.9557397508883613
A;35.5;0.6678839133885756;-0.8910126813383726;-3.932341396442857;-3.6185849394518974;-4.535847642940992;-2.766829600997601;-7.467741874562297;-1.0508023936507749
A;35.6;0.6541665519214832;-0.8919755844464902;-3.945740603504943;-3.6264024779552244;-4.613323556629084;-2.900125468690588;-7.49011959815126;-1.1529166526911052
A;35.7;0.6425620916967208;-0.8921952810349802;-3.957922324466098;-3.633720875105381;-4.6888526185584745;-3.0016077983826324;-7.513548107829098;-1.2207969053208139
A;35.8;0.63370779191985;-0.8915222651252105;-3.9684524771647918;-3.6402271991112563;-4.761235497172637;-3.0984039604064475;-7.523527300191534;-1.268167527978605
A;35.9;0.6281346678295446;-0.8898756829491381;-3.9768881834112393;-3.645587820794232;-4.829024070430074;-3.198824679059691;-7.511735635360992;-1.3018126778236099
A;36.0;0.6263590703371253;-0.8870710151864714;-3.9831096520463363;-3.649657666076918;-4.89226578523312;-3.2874803693093217;-7.483174273450793;-1.3578471968265677
A;36.1;0.6287808689275679;-0.8829741581791323;-3.9870656583310287;-3.652329319040169;-4.951148803311448;-3.3468584629360065;-7.443132090493758;-1.4788917667889745
A;36.2;0.6354189115920305;-0.8775973629364232;-3.9887550477158125;-3.653545990787453;-5.005024576213452;-3.379008852020331;-7.392940058166875;-1.6142986730148703
A;36.3;0.6461427151833744;-0.8709697870034949;-3.9883070368109945;-3.653348493386057;-5.053490937480267;-3.3926427485711046;-7.331274411814509;-1.719613104624348
A;36.4;0.6607309972049765;-0.8632815630093754;-3.9856538429276895;-3.6516677270578963;-5.095405685695892;-3.398408988646512;-7.263121747201519;-1.7679727943971877
A;36.5;0.6788537133310523;-0.8547684208972864;-3.9807413561187737;-3.6484626701886924;-5.129597077280569;-3.4006168767050586;-7.196821475487262;-1.7095763660657826
A;36.6;0.7003155710155474;-0.8454154950728686;-3.973904079071143;-3.6439638048546548;-5.1569575992601875;-3.415042019778889;-7.126026757628135;-1.6470407052989062
A;36.7;0.7248303798048615;-0.8352419577913954;-3.9655196846197804;-3.6384430242880454;-5.178739046937504;-3.4644303089819624;-7.039839334561029;-1.7161100433115497
A;36.8;0.7519768596120397;-0.8243026257691204;-3.9559631140771727;-3.6321844917250843;-5.196008617501684;-3.5177003915612133;-6.946771720853448;-1.8573135067650108
A;36.9;0.7812732514254476;-0.8126593385335866;-3.94565050531573;-3.625493754791782;-5.210065171641086;-3.5320554494900005;-6.859250103318458;-1.9920941920281
A;37.0;0.8118093576662803;-0.8008091587261035;-3.9346517253651743;-3.6184507113243054;-5.220820546403824;-3.520601217390111;-6.774443501115917;-2.0797162014725648
A;37.1;0.8424568417101638;-0.7894255037491549;-3.9229507178793988;-3.6110936168384646;-5.227730439718383;-3.5006311991191983;-6.688072441878192;-2.0641898168513095
A;37.2;0.8723902191476977;-0.7789060730511835;-3.910760091027543;-3.6035467426672554;-5.231330916531909;-3.4866277432707258;-6.602333153899589;-2.003885718841713
A;37.3;0.9007458930711373;-0.7696906282958377;-3.8982666655695226;-3.5959209125112586;-5.23200670033618;-3.4713841147347932;-6.51983426977926;-1.9870997542480644
A;37.4;0.9263854597326907;-0.7623774935209235;-3.885699090327312;-3.588454488090053;-5.229833011185842;-3.4584827026559295;-6.444331488228649;-2.004231806756969
A;37.5;0.9483636391450521;-0.7574380770880493;-3.873330964925991;-3.5814196250378756;-5.22504007357809;-3.4430706863885265;-6.380189722575577;-2.037372976658505
A;37.6;0.9656074106134863;-0.7555317519589023;-3.861154034536835;-3.5749362083796483;-5.2167379792248285;-3.424308583946155;-6.3306065186210105;-2.0680204470107557
A;37.7;0.9772069309060362;-0.7572346325980531;-3.8491219578209344;-3.5691115151121884;-5.203984046351933;-3.4012073922453276;-6.297988500184716;-2.0632433357548927
A;37.8;0.9834127220646645;-0.7623494532964287;-3.8373953966974006;-3.564040382252992;-5.187269997364526;-3.3754227656568503;-6.283003444760253;-2.037598675250744
A;37.9;0.9848503340330854;-0.7704505261126418;-3.826085689448726;-3.559718218309851;-5.16715656426076;-3.349372521425124;-6.283266539210864;-2.0180943005145653
A;38.0;0.9821282449206371;-0.7810732817282741;-3.815414288839579;-3.556278532416061;-5.14480767487544;-3.3245267498040687;-6.296250930669497;-1.9945057059634295
A;38.1;0.9760616969885195;-0.7936208655028096;-3.8056250901623074;-3.5538280009137453;-5.121619043366903;-3.3032067106902208;-6.322457977017937;-1.959886748696107
A;38.2;0.9670824574933334;-0.8078058408159169;-3.796516721737381;-3.552090726209141;-5.0970979661207;-3.2848322621005033;-6.350697124130722;-1.9192753838544299
A;38.3;0.955544934061292;-0.823374853483581;-3.7878477762439626;-3.5507721658434037;-5.070598426403646;-3.2661170622812783;-6.3751730717876685;-1.855356391400098
A;38.4;0.9422009032495713;-0.8398771870769265;-3.779543915771768;-3.5495931297390224;-5.0420744628420815;-3.249673282357364;-6.417117516638947;-1.8099299493664844
A;38.5;0.9277930429564253;-0.8568763191087374;-3.771533171143982;-3.548279532884107;-5.011386248034767;-3.2410241315563777;-6.437592235800562;-1.794143314958271
A;38.6;0.9130668080960215;-0.8737525795766578;-3.7641128334543286;-3.5470269921064475;-4.9800532529497525;-3.2341439928551647;-6.429017486520917;-1.778716144156378
A;38.7;0.898905989044933;-0.8898275730590317;-3.757741578880815;-3.5461806831891476;-4.950328676070896;-3.2196816147888985;-6.599768385592359;-1.7234631763126655
A;38.8;0.8857737594630684;-0.9047232260326213;-3.752556402832351;-3.5458982823793583;-4.92281971097771;-3.203364789466398;-6.831020471691258;-1.624987585904721
A;38.9;0.8741156596578444;-0.917974848605505;-3.7487047883544844;-3.5463701611821583;-4.898254713987471;-3.1944493730642023;-6.266826238834901;-1.6952760304855128
A;39.0;0.8650119298312825;-0.929127556177194;-3.746509157578148;-3.5477263599098596;-4.878460080780436;-3.190263980759047;-6.443385894627156;-1.5891202553598014
A;39.1;0.8594247473232639;-0.9378428448480353;-3.7461945681077466;-3.5499901275511774;-4.864853231472186;-3.1861768932263037;-6.537477750374239;-1.5883630308677334
A;39.2;0.8583758290230693;-0.9430631322961487;-3.7481463668749844;-3.553347745063084;-4.859941593337744;-3.184816548262886;-6.574981890980193;-1.6017180633523243
A;39.3;0.8627844558575245;-0.9440913236816835;-3.7527088018570485;-3.5579093087732203;-4.86612194290573;-3.1893218280253666;-6.47043673068832;-1.6141098678714816
A;39.4;0.8722363728955882;-0.9409010587868073;-3.759610129679656;-3.563452436877991;-4.882366362054142;-3.1985670323028326;-7.098955467294488;-1.3408166888479818
A;39.5;0.8858578041673274;-0.933537578317603;-3.768455547076375;-3.5697161024736865;-4.9068116908287225;-3.2109557508132656;-7.051968511070794;-1.2501200835732276
A;39.6;0.9030614022142077;-0.9241981878688895;-3.7788615648696493;-3.5762155345028455;-4.937719164473303;-3.22588772650794;-6.957818525475677;-1.1972790837507403
A;39.7;0.9230592182985435;-0.9141152192962668;-3.7903581436443936;-3.582487472406943;-4.972783545206993;-3.242487518712393;-6.9294772368307305;-1.203368068562441
A;39.8;0.9452158384153536;-0.9028154598002152;-3.8029066228925745;-3.5885153829766083;-5.0113318241698135;-3.260265971579038;-6.931475524366706;-1.2531088533893955
A;39.9;0.9690793717317279;-0.8922962189911526;-3.8165294909900136;-3.5943101910159996;-5.053015916076506;-3.2789193039354685;-6.836519696995133;-1.3278217123754337
A;40.0;0.9936982371358795;-0.8770372388404466;-3.8309216105948223;-3.6001694051563575;-5.095917986772013;-3.297430000848989;-6.725686901600208;-1.3886274990855985
A;40.1;1.018150415710098;-0.847793137056339;-3.8457670183224884;-3.606186353315412;-5.138131290415407;-3.314800250979388;-6.707741443791133;-1.4173866143087581
A;40.2;1.0422621874543931;-0.8143456780737827;-3.8605428685012853;-3.6118433199976745;-5.177637644412349;-3.3302993897647593;-6.741816778058841;-1.3731768977563643
A;40.3;1.065956453576006;-0.7915533692274606;-3.8745595253122125;-3.6165003825663753;-5.211973978281159;-3.3432207816393382;-6.774277835690717;-1.3185211012877291
A;40.4;1.0892658223238252;-0.7752442219601408;-3.887532122875454;-3.6184360254683767;-5.240296801778852;-3.3534769872322117;-6.832050908015165;-1.2812684673882107
A;40.5;1.1123128083323248;-0.7569618742747997;-3.8991935174337726;-3.6163673115094466;-5.261918164123456;-3.3608505070717265;-6.869533740095306;-1.2148074713015828
A;40.6;1.1345477876556014;-0.7395696661236224;-3.908840098237674;-3.6100563675045976;-5.274304045364226;-3.3648645908250536;-6.867969988171592;-1.1639375781244468
A;40.7;1.1553133590831932;-0.7273890742853929;-3.9158750146228125;-3.598817627651816;-5.274792140217298;-3.364987285096424;-7.052904329665247;-1.098197359941932
A;40.8;1.1742376965425232;-0.7161649036465955;-3.9196314438209594;-3.5850193049970165;-5.2601583580890745;-3.359123931937799;-7.255807251245558;-1.02953554912763
A;40.9;1.1909462736542664;-0.7008408418030662;-3.9194851226554595;-3.5733625948511616;-5.230897915224277;-3.346785381286958;-6.558639428554646;-1.2459515512603965
A;41.0;1.2054447499774246;-0.6831881529655819;-3.9157840877864794;-3.5635060727738535;-5.18913564145864;-3.3280471129178433;-6.632786029746981;-1.1385532438610182
A;41.1;1.2179917786595802;-0.6657873933193809;-3.909139690548423;-3.5424362345576443;-5.123004615999777;-3.298694880200472;-6.587616403557234;-1.0881300287671978
A;41.2;1.228470285551479;-0.6499483993736606;-3.8998619182837033;-3.5049280041440256;-5.036822381424726;-3.2646033481587104;-6.624884818087512;-1.045258021161037
A;41.3;1.2368115264680364;-0.6371718023320044;-3.8883954820770135;-3.5001156560599536;-4.9933398774080855;-3.241807321099225;-6.626634777668069;-1.000920553010394
A;41.4;1.2434508355043494;-0.6267398463853882;-3.8748973990304747;-3.43120287415385;-4.871840822584546;-3.207674885055533;-6.602088197377468;-0.8587828383117081
A;41.5;1.248751215452406;-0.6173170295201018;-3.859423048261579;-3.3605603541973648;-4.762963052464452;-3.157736378614232;-6.668153982247982;-0.7021099868221959
A;41.6;1.2531690840326024;-0.6081552078234894;-3.8426657950078735;-3.3433700485680156;-4.671114654381585;-3.095413396741361;-6.759273217325002;-0.6126784853545243
A;41.7;1.2571477459859894;-0.598446911736931;-3.825396601016033;-3.317824813655662;-4.5549930908578515;-3.0349120203330213;-6.808605522831719;-0.5450351418572265
A;41.8;1.260132591642284;-0.5886003340008973;-3.80808694979201;-3.2995853143986906;-4.4386021745810105;-2.9739105569803725;-6.832878379166655;-0.5020164288777164
A;41.9;1.2612612363320468;-0.5794480474620508;-3.7912894240567003;-3.2704991533184224;-4.322341175717026;-2.9082926976463592;-6.855221571849771;-0.4858692890421281
A;42.0;1.2600890016226367;-0.5713131059709005;-3.775267739695052;-3.239077745942044;-4.207864811768799;-2.842562089517896;-6.881562185279893;-0.471614037046898
A;42.1;1.256099801350392;-0.5645755989966365;-3.7601671476979006;-3.220499039905116;-4.090913683648838;-2.780356799952204;-6.914731658839973;-0.42317605961247207
A;42.2;1.2488548864615205;-0.5593737278055745;-3.7467883073413404;-3.2080794389309357;-3.973275834708525;-2.721280571383156;-6.941159942891592;-0.3521978309599314
A;42.3;1.2381781982932327;-0.5556253899320046;-3.7358741703675946;-3.1924366453543094;-3.8651428223676594;-2.6707237169595985;-6.956191844150729;-0.2860519413891831
A;42.4;1.2235166968298439;-0.5535647064896055;-3.72779084292099;-3.1761829499541068;-3.76494135690977;-2.6301720847811585;-6.938647362673959;-0.23840440695586965
A;42.5;1.2044186215661135;-0.5533673458966764;-3.722848528606525;-3.163174994094194;-3.6381801677232075;-2.5706593678802343;-6.816880684392234;-0.17032874538075995
A;42.6;1.1814257349139135;-0.5547613761727271;-3.720544079456662;-3.1521691318146936;-3.554535475934611;-2.552361526151433;-6.705362219450081;-0.16959964760637222
A;42.7;1.1552527046803063;-0.5574332966480284;-3.720087861847006;-3.14178272748221;-3.453436710715609;-2.5172588875985906;-6.52338475530365;-0.14376266659555595
A;42.8;1.1266691072564952;-0.5609457420781349;-3.721395196196829;-3.13258139731877;-3.362460177095157;-2.484196616817415;-6.324695204210319;-0.06678147272852364
A;42.9;1.0965752809268337;-0.5647989499945801;-3.7243320443220624;-3.125143410448407;-3.2447492932139013;-2.4152142401998673;-6.064109037572725;0.0823703565104017
A;43.0;1.0650689930809396;-0.5689947476094469;-3.728630145806164;-3.1195133311844234;-3.174424915275326;-2.376278921088016;-5.858375828392305;0.2578004748735081
A;43.1;1.0321169085260766;-0.5735969561523845;-3.7341309203348163;-3.115707279465521;-3.079714269911365;-2.3202208048523807;-5.588937357370273;0.44479894944919945
A;43.2;0.9981770349666604;-0.5784579511456979;-3.739962673782865;-3.113537305019275;-2.9903073020438007;-2.2720217803096143;-5.305451747359543;0.6733379980024171
A;43.3;0.9637254088951277;-0.5834366414814891;-3.745070945921713;-3.112699047326867;-2.9021044926089665;-2.220830987294125;-5.000087054063801;0.9208079541078659
A;43.4;0.9296029171313723;-0.5880511549899733;-3.749255307069495;-3.1129099169795302;-2.815872171615148;-2.180833761671787;-4.679880232568297;1.166649765667163
A;43.5;0.8969330409633995;-0.591624075396815;-3.75237201742789;-3.1135086093840783;-2.730412932906449;-2.1725192498031154;-4.362742489617836;1.502034606816417
A;43.6;0.8662914097610764;-0.5938433165216859;-3.7540603628820897;-3.1141446219551305;-2.6459217340041774;-2.1738553525518487;-4.024287594676497;1.7229483463521769
A;43.7;0.8382345834478097;-0.5943858093251908;-3.7541588679374773;-3.114430557573662;-2.563486466624718;-2.1530101504002355;-3.6905040257337944;1.9395685269629424
A;43.8;0.8139575479862522;-0.5925637486933647;-3.7519578566216185;-3.1123298053069264;-2.482888939412058;-2.121383511023287;-3.359274170459875;2.150654418066454
A;43.9;0.7944686237539784;-0.587810570261675;-3.746737340058401;-3.107155110922438;-2.404040676956947;-2.0977851115518376;-3.0398571198986724;2.3371244368459316
A;44.0;0.7807700780145969;-0.5794778818053207;-3.738864058519908;-3.098483613687393;-2.3296859257742537;-2.0810653063757854;-2.7468686303328234;2.4956355929826946
A;44.1;0.773711587968704;-0.5669996317538889;-3.728886076791049;-3.0828705449938325;-2.2621419207867404;-2.0689462560168708;-2.491420212664202;2.5938727799553187
A;44.2;0.7726753961315002;-0.5507567339743543;-3.717380622302161;-3.0658993168642596;-2.2028773056007243;-2.062252194296565;-2.2702041520316043;2.6451196837685838
A;44.3;0.7765971803435955;-0.5314133323993909;-3.705102385064666;-3.0587629545225083;-2.1563221639228707;-2.061552723671595;-2.09311557435436;2.668981122160087
A;44.4;0.784741467030822;-0.5094657419690435;-3.6920409734885578;-3.051413016859309;-2.121753786257351;-2.065543269199018;-1.9116722404519724;2.652881034323143
A;44.5;0.7962052820769899;-0.48553452732798785;-3.678042901372555;-3.0272957874296558;-2.0856666580177006;-2.069165917284656;-1.7565295751140486;2.6687772565836787
A;44.6;0.8105146385494445;-0.45995842336494697;-3.6635594486828906;-2.9973899348859008;-2.0762518360911244;-2.0811700632007084;-1.607156260836092;2.644830087062241
A;44.7;0.8274020228925024;-0.43294847768995304;-3.648989446757664;-2.978331374517042;-2.0672689558086272;-2.09469422365498;-1.4665059923473993;2.594939642587447
A;44.8;0.8459996154429487;-0.40509928717710686;-3.6348836648692413;-2.9647442899645085;-2.0700133039422597;-2.1130310772597087;-1.326491725040154;2.5079506831707445
A;44.9;0.8654203918821657;-0.37700561619108885;-3.62195080543972;-2.948014541980914;-2.0832459757610997;-2.135812179426839;-1.1809905703855519;2.396998719792937
A;45.0;0.8851975325193869;-0.3489942117903769;-3.6100581523807698;-2.9302168622349654;-2.1061488315083743;-2.162594664308898;-1.035556086787046;2.273229730694512
A;45.1;0.9047929035678123;-0.32143617428846866;-3.598924573614292;-2.9145660892034875;-2.1367852740142284;-2.192388610362236;-0.897000160053654;2.1551384767539346
A;45.2;0.9238794287015041;-0.29452442847080523;-3.5889987571170856;-2.9006578737131634;-2.1757406187478514;-2.2256184661579743;-0.7729749635195854;2.051549953952078
A;45.3;0.9422004870571236;-0.2684105272639667;-3.580607952246505;-2.886309967827047;-2.2236049787105014;-2.262736460040588;-0.6726661633429013;1.9557443107443548
A;45.4;0.9587180696086698;-0.24378194721603474;-3.5741496177310346;-2.872815445908325;-2.2801079413324374;-2.303376141247458;-0.593563451830772;1.8761852615717096
A;45.5;0.9723993129331335;-0.22134003669842647;-3.570068954559869;-2.8685162405196074;-2.3449723374194513;-2.3471095550388807;-0.527008592227359;1.8396953766339414
A;45.6;0.9825868659792709;-0.20160095767563746;-3.567592824211658;-2.8570264275486337;-2.415621179790114;-2.3925576865588174;-0.4704777904190045;1.794011721566383
A;45.7;0.9887546512455186;-0.1850274547806364;-3.5656872559749586;-2.853070088462731;-2.4888684164132338;-2.4380331295958695;-0.4322694886766301;1.6853203488972117
A;45.8;0.9912403047861368;-0.1715097120460983;-3.564025693714259;-2.850066956663412;-2.563324278861716;-2.482910269310844;-0.41607744422342724;1.574706450852189
A;45.9;0.9907567250240991;-0.160684297566986;-3.5622760262979796;-2.8482608422880547;-2.637867530803198;-2.526814981688435;-0.32623899348476654;1.4337378479519505
A;46.0;0.9876525563614594;-0.1524442841565786;-3.56043279174901;-2.8474767406365498;-2.711704032098247;-2.5692811495407253;-0.1713411294172078;1.299320853993928
A;46.1;0.9823596712702432;-0.14660760760527522;-3.558729514938433;-2.8492122610954738;-2.78468382359231;-2.6101588339314286;-0.18145755887493853;1.2210111994061885
A;46.2;0.9754130714505448;-0.14284775005393455;-3.5567228116604492;-2.851426704544629;-2.8560151178146733;-2.6492647344753735;-0.27648565932462593;1.1647988095722583
A;46.3;0.9672324809459085;-0.14089802794208003;-3.553942629821545;-2.850287421447714;-2.9249444241852913;-2.6863999815866015;0.7502911618033016;-0.7589686171933431
A;46.4;0.9584719599130903;-0.14029801824358903;-3.550461668321926;-2.8490710403009203;-2.9920987358326876;-2.7220925471929314;0.4374061324644776;-0.6700363513766364
A;46.5;0.9497838799336757;-0.1405755486369967;-3.546348041137931;-2.853151096903614;-3.0581943102294304;-2.7569539685878355;0.4823944687668411;-0.7245495720755691
A;46.6;0.9412195358251831;-0.14175167477082753;-3.5419465539948347;-2.8592282443907906;-3.1235718663069014;-2.790904062210913;0.5874187138756252;-0.8059834581352131
A;46.7;0.9327352649715032;-0.14393916939552773;-3.5377390657308556;-2.8622150325886424;-3.188625699716462;-2.8238264941692535;0.5331899095673373;-0.8428442279963214
A;46.8;0.9244196941059135;-0.14714084287713933;-3.533478861989259;-2.863930534509091;-3.2525659975295635;-2.8553914748028517;0.5067054300782501;-0.8994564329582362
A;46.9;0.9163200970498604;-0.1513987165181104;-3.5288802349309054;-2.8672392617614175;-3.3143740550212915;-2.8849442820318294;0.49651553571647994;-0.9326025953717657
A;47.0;0.9088586962635025;-0.15649929161391155;-3.524033452104504;-2.871403621481774;-3.3740992438962034;-2.912653181743281;0.5152125434596582;-0.9572677401602757
A;47.1;0.9025469782806126;-0.16213670454919113;-3.518989200903871;-2.8754021694836123;-3.4318481709808366;-2.939610678051897;0.5456337574989015;-1.0260303328708356
A;47.2;0.8975696855149623;-0.16824529860007775;-3.5143379048761774;-2.8796824737502846;-3.488152244791807;-2.965661105780742;0.5599535700320865;-1.0992580785098742
A;47.3;0.8940520392514829;-0.17477006869451728;-3.5108182982240894;-2.8847278652756425;-3.5441503563973638;-2.988146647089963;0.5247993713185287;-1.1357320845529573
A;47.4;0.892053528132085;-0.1815710313137983;-3.5083799622757197;-2.890375609308846;-3.599647680371362;-3.007695504927746;0.45750689667840705;-1.1528817460515492
A;47.5;0.8915109352775464;-0.1885647887478822;-3.5068462896373855;-2.896441854252475;-3.6542845771970867;-3.0373348124979143;0.3838765503018129;-1.1770909958927966
A;47.6;0.892456459163237;-0.19557340968635875;-3.50618442472169;-2.9029582978928468;-3.709945594110973;-3.0564575637746376;0.31658162115678995;-1.22153167766127
A;47.7;0.8949154536879661;-0.2024139813920378;-3.5062003616279838;-2.909901120272734;-3.7665880128923708;-3.081055078757118;0.27591648258803253;-1.2932079437241601
A;47.8;0.898664268173551;-0.2092030685961864;-3.507017006893756;-2.9173656492559985;-3.82412165132328;-3.1137412234596553;0.24719863942579026;-1.3876799555114652
A;47.9;0.9034696710019497;-0.21609569160321276;-3.5088039945110325;-2.925476304043895;-3.8867957632677306;-3.1585454434277107;0.19878348151635095;-1.5092779493118964
A;48.0;0.909206249964036;-0.2231568222638559;-3.5110930873693498;-2.9339962224501286;-3.9465452930229574;-3.192392020564405;0.14794121714743635;-1.6254720577775714
A;48.1;0.9157696836613599;-0.23045700116797777;-3.5133206952065916;-2.942621086101404;-3.9878812300620106;-3.197117661392298;0.12324179880617987;-1.680126962989697
A;48.2;0.9232703152452393;-0.23785715168556898;-3.5150960759128775;-2.951175366997994;-4.024665208266394;-3.197827896364925;0.10450507026788698;-1.7169623789258253
A;48.3;0.9319006758304228;-0.24512879206454338;-3.515963516350445;-2.959452848433834;-4.079605416816577;-3.2441984203666734;0.06395846847382163;-1.8081644247780393
A;48.4;0.9417043175293472;-0.25221671236220367;-3.515788957210626;-2.9673866491922847;-4.138173191642413;-3.2998347463434983;0.008619835317323687;-1.909759182024488
A;48.5;0.9527041228760881;-0.25906775452734454;-3.5145411193042624;-2.974971246055361;-4.178724941958278;-3.3173609921395713;-0.04880053685147242;-1.9586388532334686
A;48.6;0.9649436438837702;-0.26553710316355755;-3.5117795459824737;-2.9819832973801064;-4.208594993014596;-3.315500346322511;-0.10810497168563253;-1.969480377150542
A;48.7;0.9784077738014765;-0.2715335471636194;-3.507093564959512;-2.988201430207995;-4.237022623930493;-3.301823458574455;-0.16975085329582104;-1.9656411684113904
A;48.8;0.9930750629995043;-0.2769179638449805;-3.5002074757644297;-2.9935347451261847;-4.266207439621436;-3.3258697526930896;-0.22825902619622637;-1.9506046435457922
A;48.9;1.008914869354394;-0.28156244419559656;-3.490875939851199;-2.9979008341962676;-4.286650764222576;-3.3376825155091416;-0.27737347733378837;-1.9323440166990598
A;49.0;1.0257286418589169;-0.28564219402488433;-3.479305569361147;-3.0013730131079774;-4.301351248746139;-3.3569391007443183;-0.31945573462917043;-1.914382661289351
A;49.1;1.0432757784200237;-0.28940454186565984;-3.46586169984017;-3.0041028803889915;-4.3108799348372955;-3.381925775459758;-0.3593725251214918;-1.8950587695452745
A;49.2;1.0614512762766048;-0.29299248031423186;-3.450669046737452;-3.0060560824244202;-4.314180163586886;-3.3995153887698564;-0.39473943213791696;-1.8827076298728287
A;49.3;1.0801553235322159;-0.29656946392641864;-3.433900305240138;-3.0072084198736655;-4.310180882720694;-3.392194078611656;-0.42365603891175735;-1.8835373841077032
A;49.4;1.0992921702198386;-0.30019284152709275;-3.415739288014672;-3.0076705196337934;-4.299560497737494;-3.37238110233036;-0.4484395846861718;-1.890161756303546
A;49.5;1.1188048311729846;-0.3038566325553562;-3.396356925775978;-3.0075548198203887;-4.283348044593025;-3.354736319579066;-0.4691041586128075;-1.8977332737249057
A;49.6;1.1385305641069616;-0.30770594699939186;-3.376191407207932;-3.0070979694552;-4.2627238389493;-3.342534651629196;-0.4913969530438247;-1.892133656687166
A;49.7;1.1582775697995702;-0.31189451406181945;-3.3557532159218924;-3.0065940036364083;-4.239022623534542;-3.344467654947273;-0.5245039342276147;-1.8554394195150765
A;49.8;1.1780162859143786;-0.3164300781472118;-3.33539395879464;-3.0061193032745073;-4.212908921245042;-3.3454641696072733;-0.5592338974369805;-1.8063283264402292
A;49.9;1.197752403649244;-0.32131397996200395;-3.315474936860763;-3.0057092396807286;-4.184764652371549;-3.31906897649522;-0.5856558603969471;-1.7675279439511336
A;50.0;1.2173943945275483;-0.3265441337682473;-3.296343282094156;-3.0055363411368816;-4.154853025613323;-3.282808839925355;-0.6113725781867521;-1.7393675199564083
A;50.1;1.2368912734481057;-0.3320872860149704;-3.278288429791184;-3.0057178610830686;-4.123701527642306;-3.2662330814800904;-0.6342980997881359;-1.7290908272288625
A;50.2;1.2562093353140407;-0.33804021434719217;-3.261726515519642;-3.006379844898745;-4.091485957878999;-3.257800598927878;-0.6657736859424069;-1.719787980158569
A;50.3;1.2753132020214626;-0.3445135200248857;-3.247010458059478;-3.0077134108655947;-4.058586446343192;-3.2384785394684013;-0.7340874702732595;-1.6881563101414327
A;50.4;1.2943737479978576;-0.35147136732729994;-3.2342792681624846;-3.0095573079059013;-4.027575482843365;-3.2197528179972;-0.7998648977829547;-1.659845426709534
A;50.5;1.3135954182382124;-0.35886043519661676;-3.2235739490601;-3.011722004962594;-3.998450050713979;-3.211089544979688;-0.7835619215703113;-1.6946161744731343
A;50.6;1.3330150257644426;-0.3665998330183055;-3.214689564521972;-3.0144717316189227;-3.971836831692949;-3.204554841841579;-0.6858890650803051;-1.811058195921926
A;50.7;1.3526434222112338;-0.3745744488119997;-3.2073216780176987;-3.0178662178149462;-3.9549607914282987;-3.2108638539180028;-0.7476943437272757;-1.8757210429714695
A;50.8;1.3724137782625263;-0.3827855436333216;-3.201270999207395;-3.0222065216913236;-3.9379785333454707;-3.1989967763554596;-0.9055528109662685;-1.892214178466115
A;50.9;1.3921910357690972;-0.3912582568058089;-3.196339665292138;-3.0276305733204816;-3.8999093353391943;-3.1564701894907166;-0.7448897733939489;-1.9961002957569598
A;51.0;1.4119512556306146;-0.3999221855434607;-3.192398237243873;-3.032670452140879;-3.8624049584233475;-3.1296671994014402;-2.0026217272923383;0.14621672236107583
A;51.1;1.4316619982234962;-0.40872786064338573;-3.1893490394704913;-3.0377638746663407;-3.8605085395681087;-3.14429382442651;-2.055039387137898;0.252586315756125
A;51.2;1.4511621351381976;-0.4176339161774892;-3.1870393376692108;-3.0428253794353703;-3.8717155825099936;-3.1766391507309315;-2.024840008492813;0.19551481336005794
A;51.3;1.4702898406721767;-0.42659171528694423;-3.1853075199604852;-3.041959209309487;-3.861226667546609;-3.1761347957473234;-2.065612589455325;0.10331692208212424
A;51.4;1.4888308942745565;-0.4357145571493796;-3.183975100252655;-3.0459459103698294;-3.8413444112367023;-3.1616235892701816;-2.1751490649847294;0.0657184766627165
A;51.5;1.5065060710311668;-0.4451704994766912;-3.182856837639885;-3.062102667101341;-3.830404499531825;-3.149930870010813;-2.25318283560448;0.049598661177907864
A;51.6;1.523232357865382;-0.45499122730837005;-3.18177899704623;-3.080347545972566;-3.8227903181036034;-3.1545172773860606;-2.3296211421356054;0.14646436795580056
A;51.7;1.5389285462731028;-0.46522202366406606;-3.1805889261206843;-3.0807206638750806;-3.815505005340578;-3.1587252813957414;-2.4160413940118555;0.17447405230415303
A;51.8;1.5532573303201014;-0.47596293427929987;-3.1791729807106637;-3.0756724906295063;-3.8096587646399556;-3.1587906093059424;-2.5153114573838984;0.22233574331542658
A;51.9;1.5658701313700092;-0.4872874773810558;-3.177514513244818;-3.084293461398765;-3.790188774776347;-3.1416312909409343;-2.6459896627780535;0.3491588982665883
A;52.0;1.576370966244047;-0.4993930913825464;-3.175627714900178;-3.099665347892072;-3.793753261431218;-3.154721323521089;-2.7653706368216127;0.5284272884553248
A;52.1;1.5843553176827025;-0.5124867087687551;-3.173586704313936;-3.1110675256824827;-3.7865357693310884;-3.158107404710948;-2.817165556977401;0.5682711578689924
A;52.2;1.5897356470915323;-0.5265472948028215;-3.171738887948928;-3.120970115352885;-3.7835582009471658;-3.1586900470685375;-2.822315118099255;0.5544056128043344
A;52.3;1.59257626452371;-0.5414900989354967;-3.1704515248285996;-3.132664656431089;-3.7799073444592692;-3.1477600015220695;-2.815769626092292;0.5984030067273794
A;52.4;1.5928691987979837;-0.5572351630892785;-3.1700075300958033;-3.1451291846584275;-3.782697936772268;-3.1600565426773577;-2.8046879582231203;0.675712945489375
A;52.5;1.5907021732501345;-0.57364660042178;-3.1706664270887956;-3.157511924870881;-3.785096647074982;-3.167820481752884;-2.7974034848610323;0.6837254300986452
A;52.6;1.5863389056882362;-0.5906327306323048;-3.1723450682968326;-3.1699697466877423;-3.789458167744279;-3.165289287870859;-2.7947480514145493;0.7613691712317511
A;52.7;1.5801092092138174;-0.6081023892089709;-3.174836128247047;-3.1825981246115713;-3.7956866682427246;-3.172336937300173;-2.790384202469434;0.8550263047925304
A;52.8;1.5724562462002043;-0.6258486118690184;-3.1781106922457583;-3.1953455135836406;-3.802416496004337;-3.1789199873892966;-2.785640780040159;0.9166240352975367
A;52.9;1.5638674234951582;-0.6436517677000472;-3.18212644028795;-3.2082230820272506;-3.8080219654529515;-3.1836688424772173;-2.7836476076930885;1.0142559759076597
A;53.0;1.5547243421631416;-0.6613290682622323;-3.1868277008434855;-3.2212427560654056;-3.813997936535736;-3.1877447347314685;-2.7779414683137724;1.1083052404071747
A;53.1;1.54538271737572;-0.6786863062964557;-3.192192730248124;-3.2344631984434584;-3.8220156290577307;-3.1933681539604115;-2.76161519994359;1.188274756866222
A;53.2;1.5361712190784083;-0.6956057239892255;-3.1980967717781046;-3.248066767500054;-3.8331631807643465;-3.2013204170234375;-2.7400166352960476;1.2474271486310464
A;53.3;1.5273972645648364;-0.7119857967885906;-3.204371006475194;-3.2621579320147718;-3.8486964691758794;-3.21229281282713;-2.712966610545576;1.2917993437253148
A;53.4;1.5193812044551824;-0.7276261177900935;-3.2109793325484906;-3.276981188578461;-3.866712914326303;-3.225094633972406;-2.683031433439224;1.2975079828913432
A;53.5;1.5123911088475328;-0.7423332510692541;-3.2178274642912275;-3.2927887117184347;-3.8837707198237648;-3.2377568259789045;-2.6612115268199603;1.2525990309864687
A;53.6;1.5067338896241822;-0.7559163796660119;-3.224704061994157;-3.3091977343604193;-3.89907822136281;-3.2493254523029265;-2.615599465859096;1.2452908692522155
A;53.7;1.502683365806222;-0.7681921450168246;-3.2313783794391626;-3.3255825419166265;-3.911571339331531;-3.2575125470146133;-2.5212208727989363;1.2799733304126464
A;53.8;1.5002774491390338;-0.7791192039553886;-3.2373424560449418;-3.341601926589829;-3.9175756000433446;-3.2599430559519185;-2.4091027872439152;1.2708766679065062
A;53.9;1.4994727101232057;-0.7887225441111431;-3.2420834730204557;-3.357394072051814;-3.9141349252334847;-3.26033266842926;-2.2861006765944905;1.2610994991479283
A;54.0;1.5002315670059143;-0.7969894726619641;-3.245368027072485;-3.3727915490969465;-3.897302337226701;-3.2432154974636056;-2.202206543027998;1.3619814402703494
A;54.1;1.5024611167149355;-0.8039394614662388;-3.24701565197222;-3.385943869454284;-3.863265661862821;-3.224150246855352;-2.348380037129994;1.603281189252024
