Condicao;Tempo_s;Ch1_HbO;Ch1_HbR;Ch2_HbO;Ch2_HbR;Ch3_HbO;Ch3_HbR
Baseline;-20.0;-0.8787460592412524;-0.19180916413128823;-0.2627900199731972;0.3931505684666394;0.32929494986171726;0.2182694273790844
Baseline;-19.9;-0.9146321351872491;-0.20994524455530605;-0.3010687674002437;0.36809011424172766;0.2923711031975724;0.20579263093266764
Baseline;-19.8;-0.9303076913258597;-0.22610781693482274;-0.33317593425898906;0.34457453684074313;0.2610412230681529;0.19738908429970525
Baseline;-19.7;-0.9965630296537942;-0.24048922544801155;-0.3717247421805734;0.3225514423375504;0.22193415013773254;0.19160017389827466
Baseline;-19.6;-1.0894349062761277;-0.2529645155404827;-0.4117618917268171;0.30240238366245364;0.1803157012829555;0.1883963762874794
Baseline;-19.5;-0.9206753479817129;-0.2634151066779209;-0.4022047977791594;0.28456837193772344;0.19066334072551072;0.1876470659229037
Baseline;-19.4;-1.1492981332582763;-0.2720644647917556;-0.46437795691375694;0.26881236193550606;0.12319728708949818;0.18758877473042634
Baseline;-19.3;-1.0862974730300712;-0.27919283512881243;-0.4644153770192112;0.2547406550202256;0.1221066709387113;0.186557000124135
Baseline;-19.2;-1.0234534200470948;-0.2851382932612063;-0.4585665823815077;0.24204862449068631;0.1271850879008447;0.18244658951109383
Baseline;-19.1;-1.2429537739812915;-0.2902537438457671;-0.5352787020852121;0.23040021615806783;0.04081968437085948;0.17313925433996769
Baseline;-19.0;-1.0811494704707378;-0.2947160208106263;-0.49534286382292336;0.21957769714936415;0.08295893754697481;0.15919457749761268
Baseline;-18.9;-1.1497530733487515;-0.29869451790757395;-0.5248335710542547;0.20936763623751453;0.047741888074837036;0.14201692481715522
Baseline;-18.8;-1.1754754807141552;-0.30225091305308016;-0.5415759598621497;0.19965420282170143;0.025860553806266395;0.122253971649398
Baseline;-18.7;-1.1936157622806896;-0.3054388684698628;-0.5555427107981981;0.1903140423880192;0.00621169141783362;0.10085349254769849
Baseline;-18.6;-1.200316367091629;-0.30860178093972923;-0.5662812132702939;0.18095930102248836;-0.010754112898180068;0.07854844790187254
Baseline;-18.5;-1.214438412068743;-0.3120731230270044;-0.5800272807050444;0.17123917192089877;-0.03188883852578783;0.055701399390645
Baseline;-18.4;-1.2344626226135462;-0.31622133694306864;-0.596858513409738;0.16071644626818582;-0.057393959785684956;0.033461265633657256
Baseline;-18.3;-1.2544827131523935;-0.3213926915829797;-0.6155311661104479;0.14898682532217666;-0.08598815835607887;0.012992110693214265
Baseline;-18.2;-1.276577976916765;-0.3274509693649543;-0.6364601506659939;0.13624733839780934;-0.1179804094009711;-0.005983424470987764
Baseline;-18.1;-1.2990203703913918;-0.3341111580953573;-0.6585754670059893;0.12287008693081258;-0.15199767987283685;-0.024134290992605223
Baseline;-18.0;-1.3171943706998634;-0.3411689482985869;-0.6799656034057433;0.10915100320404836;-0.1856575767635409;-0.04172345239711639
Baseline;-17.9;-1.349600181700077;-0.34835313840506643;-0.7065110950185973;0.0954716458586704;-0.22523736852290455;-0.059170383072989274
Baseline;-17.8;-1.4010267245948294;-0.3555208238662084;-0.739631075721138;0.08201306872365333;-0.27228722319561705;-0.07680309529070506
Baseline;-17.7;-1.3861719584595331;-0.3625940483181971;-0.7500252989411846;0.0688697608396387;-0.2941139991080899;-0.09468101936151552
Baseline;-17.6;-1.3289171583712003;-0.3693183097046937;-0.745476978023853;0.056366340532829184;-0.2993191301606153;-0.113322219373444
Baseline;-17.5;-1.5981471046935587;-0.37545096465893746;-0.8518106950290703;0.04480742073459343;-0.4282634194722892;-0.1332364043905061
Baseline;-17.4;-1.3982837114647122;-0.380903566110244;-0.7966975518001389;0.03432898806106621;-0.37681670013120794;-0.15378917446769425
Baseline;-17.3;-1.4804966262667998;-0.3855954476825634;-0.8369310189665429;0.02507238214831453;-0.4312853786408173;-0.17400169494390028
Baseline;-17.2;-1.5150043944626388;-0.38954018485793185;-0.8598302213767139;0.017025507376850157;-0.46582444437319914;-0.19331444524717334
Baseline;-17.1;-1.5379239813306045;-0.39277252353567693;-0.8773131540323158;0.010149318445510147;-0.4936505210065665;-0.21103458676784737
Baseline;-17.0;-1.5490912329058082;-0.395128669241152;-0.8881856426014147;0.004696853902766307;-0.5131515461043694;-0.22644180748627551
Baseline;-16.9;-1.553319352389658;-0.3964374526950163;-0.8979648668312104;0.0009253080731914665;-0.5301646955846362;-0.23906607081592846
Baseline;-16.8;-1.5425092365681659;-0.3965328618098445;-0.9046892726723401;-0.0009139130672464191;-0.5421634955483245;-0.24796608420907518
Baseline;-16.7;-1.5873644108855922;-0.3952629957571743;-0.91366098528328;-0.000584921060759136;-0.5550637947353483;-0.25225970241121676
Baseline;-16.6;-1.667418230147061;-0.392707766089762;-0.9233115698234569;0.0017814854453641615;-0.5671705461033785;-0.25230361563320347
Baseline;-16.5;-1.4417522410834644;-0.3890166628361724;-0.8979871351605313;0.005934781230243047;-0.5376521575303723;-0.2487856614608397
Baseline;-16.4;-1.64705077982459;-0.38432389374693887;-0.9160452600014954;0.011696738564532794;-0.5569790723957571;-0.24224508922072197
Baseline;-16.3;-1.5876568634473953;-0.3787959263846945;-0.9040501552657387;0.018837431212260114;-0.5407143398726628;-0.23339732297940508
Baseline;-16.2;-1.5681912474848838;-0.3725029422346733;-0.8943935484390257;0.02720362172204993;-0.5263818398817666;-0.22257937171316655
Baseline;-16.1;-1.5566976696627082;-0.3654916995634423;-0.8837187190169553;0.03668640309250826;-0.5102299035542543;-0.2099327286138628
Baseline;-16.0;-1.5562270341507007;-0.35788060482574746;-0.8725118393388689;0.04704200952414972;-0.49313225267266425;-0.19607016157572232
Baseline;-15.9;-1.545557218799007;-0.3497828867168362;-0.8586725138824649;0.05803183522573452;-0.472975381720083;-0.1815782413102891
Baseline;-15.8;-1.5281065482943381;-0.3413253892285777;-0.8428915019610939;0.06954237700024901;-0.4505224947426534;-0.1665520598362713
Baseline;-15.7;-1.5119918251895;-0.3326561243783255;-0.8264413223834088;0.08146602243618961;-0.4271542344790351;-0.15103803940273952
Baseline;-15.6;-1.4958302488926156;-0.32384482891395994;-0.809376609012717;0.09375880577443851;-0.40284049154201895;-0.13495121682257682
Baseline;-15.5;-1.479199635947789;-0.3149616786836287;-0.7918732582878354;0.1063924476235023;-0.37764876547000803;-0.11814008991950153
Baseline;-15.4;-1.4631156603921136;-0.30615632732953824;-0.7743616313904971;0.11918113729968915;-0.35219672044330963;-0.10092752057946264
Baseline;-15.3;-1.4473135280078528;-0.29755864209968763;-0.7571319409589341;0.13192781767948958;-0.32701541788617305;-0.08372233073550195
Baseline;-15.2;-1.4316326435194062;-0.28934904041778164;-0.7407317475255359;0.14445126879330594;-0.30276967894129214;-0.06677055331031934
Baseline;-15.1;-1.4216236429598315;-0.2816886393584106;-0.7256339032933328;0.15657709378019113;-0.28007055004503023;-0.050334201864629335
Baseline;-15.0;-1.4181294688733415;-0.2745368305784819;-0.71165713762334;0.1682916920901203;-0.25878532276900934;-0.03445485378391844
Baseline;-14.9;-1.3990717079015136;-0.2678092417474387;-0.6985150223472383;0.1796370372221192;-0.23859707991372758;-0.019050457993421865
Baseline;-14.8;-1.3699355991953004;-0.26138214678476324;-0.6856882180946942;0.19062435965013158;-0.2191403829536629;-0.004240203943484566
Baseline;-14.7;-1.4222277546980022;-0.25510297110434;-0.6725644531148367;0.20128715182121137;-0.19994700083390704;0.009882993433841136
Baseline;-14.6;-1.3527473387237299;-0.24898169465063624;-0.6592375499619214;0.21163081862137556;-0.1810098618411189;0.023427861982592724
Baseline;-14.5;-1.360593136735596;-0.24304767585941534;-0.6458674714127026;0.22164678855784548;-0.16240188323485327;0.03648135952022358
Baseline;-14.4;-1.359368899620013;-0.23727942057504148;-0.6322897207951721;0.23137439004312377;-0.14384508537477636;0.04922317371921903
Baseline;-14.3;-1.3293243171517108;-0.2316633150462435;-0.6191070426421694;0.24085427438908003;-0.1256677950296261;0.06184758519847833
Baseline;-14.2;-1.336509000237208;-0.22605950135656538;-0.6067505340230293;0.2500928421650048;-0.10834423682007888;0.07415902636136273
Baseline;-14.1;-1.3089340454692238;-0.2202762263081226;-0.589325044970888;0.25909306001093757;-0.08736311268780916;0.08585139940235109
Baseline;-14.0;-1.2682547728264995;-0.21423719066287816;-0.5651570947258895;0.2678436047224162;-0.061506746753321906;0.09676403500860697
Baseline;-13.9;-1.2737374714771468;-0.2078531082687789;-0.5564233352257384;0.276332388611614;-0.04865735013708772;0.10670139742613571
Baseline;-13.8;-1.3064298059384951;-0.20097997692980663;-0.5560742485757553;0.2845726097849157;-0.04326208089107553;0.11551015846811907
Baseline;-13.7;-1.0824848690087192;-0.19351894306329154;-0.46580065695896433;0.29257647679046794;0.033273569623727184;0.12312269774868767
Baseline;-13.6;-1.2064539935843;-0.18526303142432798;-0.4955929910470047;0.30037760715585016;0.012886486765594896;0.12931849933650064
Baseline;-13.5;-1.1047684503593826;-0.17603361877261836;-0.4454591662688001;0.3080005599349347;0.05539657550957422;0.13390232296111648
Baseline;-13.4;-1.02901322167257;-0.1659404884072826;-0.4031447178075691;0.3154213766806597;0.09070691495736227;0.1370040854139436
Baseline;-13.3;-0.9544331467838401;-0.15514464665492156;-0.3602996588958538;0.3226185251140006;0.12560546162853647;0.1388267040387996
Baseline;-13.2;-0.8855822725650464;-0.14388159446667714;-0.3188457198725265;0.3295163994224728;0.15869279082020604;0.13958782173089812
Baseline;-13.1;-0.8073885005515749;-0.13242791282908772;-0.2739439193970252;0.33603397962976356;0.19400574412492233;0.13955463053007566
Baseline;-13.0;-0.7224438742776238;-0.12078633592030474;-0.22650027170196285;0.34220981414407436;0.23085614057020898;0.13881388051728916
Baseline;-12.9;-0.6366837799680942;-0.10892490190906212;-0.17853616035031727;0.3480849981784102;0.2676360505229738;0.13740379010806603
Baseline;-12.8;-0.5493668464901438;-0.09689420246399294;-0.12986147755614663;0.3537013695685962;0.30457454093652814;0.1354839897502993
Baseline;-12.7;-0.46033761377810123;-0.08472682471231074;-0.08046314791309594;0.3591092507282134;0.3417521328003872;0.13320360042535118
Baseline;-12.6;-0.37158333710184355;-0.07265976772990346;-0.03138850813929217;0.3641987916889615;0.3784316940155108;0.1307020604482254
Baseline;-12.5;-0.2853901225390292;-0.061020831974733625;0.01607529849990197;0.3688080468091517;0.41371435832618175;0.12815037853903544
Baseline;-12.4;-0.20260023096149293;-0.049930644724625495;0.06144894072803808;0.37287514817875866;0.44727043264166433;0.12561521522842334
Baseline;-12.3;-0.12412745604753272;-0.039527347120746015;0.1042014011283161;0.3763220829571994;0.47872848933779366;0.12315566289015045
Baseline;-12.2;-0.05209326310856799;-0.03008254763985896;0.14319375457826222;0.3790548457761931;0.5073235072925186;0.12098923142939455
Baseline;-12.1;0.011778630563323844;-0.021798051409633423;0.17753130933853;0.3810289260902042;0.5324757278277215;0.11932963126557539
Baseline;-12.0;0.06491122209482736;-0.01502963268495261;0.20579247562738878;0.38209072697342616;0.5532020416336607;0.11839078718055251
Baseline;-11.9;0.10494315149852174;-0.010096736369960446;0.2266851852436842;0.38211104734701884;0.5686175947561747;0.11838176839799885
Baseline;-11.8;0.13296442757100913;-0.006813634902099963;0.2408627592039858;0.3812153567587968;0.5792280337072366;0.11929265617794993
Baseline;-11.7;0.15093204025585827;-0.004882049666178112;0.24944609383443517;0.37957122048355174;0.5858574013999522;0.12102980443801847
Baseline;-11.6;0.1607681693370484;-0.003969007035410144;0.2535972848217023;0.37740721024031476;0.5894024805299303;0.12357596144563843
Baseline;-11.5;0.1648880574768894;-0.00366912373795536;0.25475722050113525;0.3749893436650602;0.5909603111617212;0.12688372873833753
Baseline;-11.4;0.16391753804972886;-0.003912203653121615;0.25325024314841293;0.3723384769820237;0.5907462279942752;0.1308737052049329
Baseline;-11.3;0.15801022799995934;-0.0046999009420094495;0.2491313417412675;0.3694373529782231;0.5887788281446991;0.13548760156742112
Baseline;-11.2;0.1485644088348934;-0.005850901299789157;0.24315712671738599;0.3663613428238621;0.585585464645419;0.1406012797324907
Baseline;-11.1;0.13684875418977427;-0.007210245518275649;0.23600101146747754;0.3631655707376593;0.5816245437789966;0.1460820595559964
Baseline;-11.0;0.1241680044699427;-0.008527868894347534;0.22849180184530216;0.3600493205236255;0.5775606060971459;0.15195419172159763
Baseline;-10.9;0.11220092325330455;-0.009464160081543938;0.22172031099503364;0.35729374755257126;0.5742875960473857;0.15828961339318237
Baseline;-10.8;0.10130462836361076;-0.009941683674413504;0.21593387324368596;0.3549776563121476;0.5720085614871397;0.16509475247869698
Baseline;-10.7;0.0917927115975834;-0.009882987096252904;0.21136558616554257;0.35318734004172025;0.5709219073790379;0.17238698214686288
Baseline;-10.6;0.08574082193210053;-0.008910497621411828;0.20929743805624756;0.3522009139868265;0.5720503172047611;0.18020176925388132
Baseline;-10.5;0.08505730961015256;-0.006694942134709336;0.21088160129621691;0.35224704258403783;0.5762990231041485;0.18854498008572662
Baseline;-10.4;0.0920311662091482;-0.002810509279838058;0.21754800717000666;0.35364795998413623;0.5848086998052366;0.19745380792432599
Baseline;-10.3;0.10882921250237487;0.00314404006952973;0.23064735780193946;0.3567063109596411;0.5986589773190953;0.20696682496861385
Baseline;-10.2;0.13449148585896342;0.010949529183886142;0.24953352935424444;0.3612444296909585;0.6172942983532206;0.21697433090076323
Baseline;-10.1;0.16712698367930567;0.020203741116337604;0.27297081647738786;0.366945859132473;0.6396693294152485;0.2273067321462845
Baseline;-10.0;0.20536477214250404;0.030610721046727463;0.3000526766020686;0.37357434550312885;0.6650425993912652;0.23788785321778771
Baseline;-9.9;0.24740089249116792;0.04178775018660019;0.32959447864936564;0.3808255745054039;0.6924445545523064;0.24862087403901345
Baseline;-9.8;0.29229886229274626;0.053518643016668754;0.3609711772432478;0.38852832216020694;0.7213066273536182;0.2593291583425854
Baseline;-9.7;0.3395626538773504;0.06567898955831186;0.39384532248792503;0.3965858108691789;0.7513022108867187;0.269867516096995
Baseline;-9.6;0.3874976795047651;0.07789859336214722;0.42710131703566745;0.40470366982061634;0.7814542648996454;0.2800163490897969
Baseline;-9.5;0.4344864317082662;0.08982304606702396;0.4596747675677708;0.4126007635128133;0.8108242904575516;0.2895508016102619
Baseline;-9.4;0.47997295293278164;0.10134104958134671;0.4912077236965935;0.4201981505885879;0.8391673364545325;0.29852180299983644
Baseline;-9.3;0.5234173565207847;0.1123509865636656;0.5213539919401642;0.42742420113490276;0.8662814219778117;0.30705298246190704
Baseline;-9.2;0.5649144560129002;0.12286758428871725;0.5501745347239986;0.4342994696068905;0.8922388027167427;0.3151627953855227
Baseline;-9.1;0.604713132916288;0.1329430820569728;0.577835752148153;0.44087704009363904;0.9172159826693083;0.32291259696522623
Baseline;-9.0;0.641529218129187;0.14230697382299695;0.603486214932607;0.4469368981148918;0.9405465705290732;0.33030963109415
Baseline;-8.9;0.6739571682793111;0.15065273960819425;0.6261847046956444;0.45222428253180524;0.9614540489365551;0.33728426288297353
Baseline;-8.8;0.7008428123507588;0.15776468009758648;0.645193807937928;0.45657795681692015;0.9794345415746353;0.343988201162742
Baseline;-8.7;0.7210409785059468;0.16342253240927018;0.6597724511674716;0.4598274935164852;0.9939665996288438;0.35055043087623705
Baseline;-8.6;0.7348675882680569;0.1676539377523305;0.6700960917733179;0.46198794641645957;1.0050993677517424;0.35676480248577747
Baseline;-8.5;0.7432275398785348;0.17061400461553333;0.6767386958177708;0.46318624523998775;1.0132033169830361;0.3624258741393849
Baseline;-8.4;0.7463786035079369;0.17228137777650865;0.6797847702226658;0.4633683076507742;1.0181762787199231;0.3671996783425211
Baseline;-8.3;0.7447749238018373;0.1726675928481356;0.6794415179987414;0.4625038012500102;1.0199893520205334;0.37070245917801703
Baseline;-8.2;0.739172777936111;0.17197312702658873;0.6762626717043467;0.4607945378883027;1.0191801720892988;0.37310251775274494
Baseline;-8.1;0.7301542074574927;0.17037714361933087;0.6706957824186723;0.4584274076573509;1.0162457260172095;0.3746712704545958
Baseline;-8.0;0.7188515309662069;0.16813756242949562;0.663531966638053;0.45564612406631877;1.0118433467655725;0.37542132441741227
Baseline;-7.9;0.7064276145085042;0.16553594834299457;0.6555986727060317;0.4527218814072942;1.0067024226563168;0.37545347174928434
Baseline;-7.8;0.692721300041109;0.16247613826832907;0.6466863256515571;0.4495217050149032;1.0005454187068237;0.3746218289480483
Baseline;-7.7;0.6772465371523682;0.15873744370979637;0.6363021200278585;0.4457719370939257;0.9927407077452317;0.37254369480783645
Baseline;-7.6;0.6598282098679578;0.1543100671464792;0.6243138077947927;0.4414558729748661;0.9832972898941925;0.3695213157705748
Baseline;-7.5;0.6401506815462827;0.14914648503045758;0.6104797024676945;0.4365144369459921;0.9721215532877894;0.36584802187842236
Baseline;-7.4;0.6182581256129636;0.14312423341514435;0.5946855132236006;0.4307712072234704;0.9587986926031613;0.3608906997625798
Baseline;-7.3;0.5944640496742295;0.1362133395462548;0.5770483446899508;0.4241562597054154;0.9431690691551031;0.35410953058077244
Baseline;-7.2;0.5685601083940952;0.12819705772074297;0.5572196708233683;0.416370927471454;0.9245404049725039;0.3447719572523722
Baseline;-7.1;0.5403731944671186;0.11886451463707104;0.534883566536311;0.40712498007513265;0.9022243474231342;0.33210222519338384
Baseline;-7.0;0.5105052433223563;0.10854834094737598;0.5106481156393263;0.3968056539146625;0.877205090357438;0.31704175872920093
Baseline;-6.9;0.4796636997460926;0.09770242259967077;0.485279541551602;0.3859430002523965;0.8508431579557403;0.30106870632686
Baseline;-6.8;0.4485587741896646;0.086651979089992;0.4594810693710256;0.37492802278324966;0.8240438801010432;0.28482024097308045
Baseline;-6.7;0.41802882933308805;0.07580976198341638;0.4341071459642274;0.36426201199596075;0.7979847759184313;0.26917006388972187
Baseline;-6.6;0.38829635167799026;0.06535367698426953;0.4093789058853554;0.35410128044955425;0.7731533318539583;0.25499959722524146
Baseline;-6.5;0.35934947414351015;0.05530309234250286;0.3852512347697834;0.3444010545194329;0.7495244607836273;0.24274134422711047
Baseline;-6.4;0.3317722075524987;0.04611310012592629;0.36238579019216477;0.33567429619150335;0.728499781978865;0.23404361737711277
Baseline;-6.3;0.306060649753765;0.03819184740032355;0.341352256972991;0.3283721317347448;0.7113311620076885;0.23038889957448205
Baseline;-6.2;0.28231400430589915;0.031424651571295925;0.32217372297008584;0.3223457133521661;0.6974779506666504;0.2309509201384623
Baseline;-6.1;0.26082261860114997;0.02575691811870051;0.3050759857843799;0.3175556201209515;0.6865903609356412;0.2346845778844875
Baseline;-6.0;0.24125345423093503;0.02082331547416061;0.2896036608070913;0.31351888100968317;0.6773273092645375;0.23991374804318166
Baseline;-5.9;0.22313136857665494;0.016135281209186836;0.2751269587386167;0.30959772289090637;0.6679292487668782;0.2446282346509676
Baseline;-5.8;0.20761336618692017;0.01235304377367985;0.26293560622351997;0.3066764871419476;0.6604945049448236;0.24966886230049834
Baseline;-5.7;0.19605687007752337;0.010344712708191928;0.25458373561474534;0.30590047881878313;0.657850703967986;0.25628245489084023
Baseline;-5.6;0.18902803121249523;0.010280638849062385;0.25063107788233197;0.3075123183819226;0.6603997729393658;0.26450429223144933
Baseline;-5.5;0.18725762109218014;0.01246763635455661;0.2518314086944171;0.3119273682844792;0.6690189667122954;0.2749578211959305
Baseline;-5.4;0.19046885097297395;0.016815811563782646;0.25789403283280166;0.3189759915885544;0.683409834046671;0.2862857554510674
Baseline;-5.3;0.19741536050324893;0.02259999809961588;0.2673965003654759;0.3276199069475183;0.7011369300826082;0.29626203372765847
Baseline;-5.2;0.20885076998340768;0.03053446302350249;0.28125192220426065;0.33872133568513707;0.724677847851007;0.30691393921980215
Baseline;-5.1;0.22548886809395619;0.04136317551230473;0.3003656035475668;0.3531838200834194;0.7566512035255251;0.3191813638614889
Baseline;-5.0;0.24467336750749613;0.053170003250297526;0.32151520133878986;0.36836537463890373;0.7904422740564092;0.33179896738241954
Baseline;-4.9;0.26373964391480964;0.06395944227344508;0.34140087843335554;0.38150422820422936;0.8191194469300651;0.3442891200545528
Baseline;-4.8;0.2802713735952329;0.07214763523314982;0.35727123082879153;0.3904716728203015;0.8373404408644944;0.34796038577830135
Baseline;-4.7;0.29153665519461036;0.07589578999057167;0.36597080525851844;0.39278951363937686;0.8388747095733251;0.3372978056255418
Baseline;-4.6;0.2992418803727688;0.07647230131060212;0.36938658756852494;0.3900192828262812;0.8280299113660927;0.315961035136171
Baseline;-4.5;0.307211565192147;0.07676548885891421;0.3720147041708426;0.3859247740056535;0.81473667311759;0.2872659254568708
Baseline;-4.4;0.31540811378439937;0.07660520832411866;0.3734795743384769;0.38008207130656047;0.7982499303382511;0.2752583045060124
Baseline;-4.3;0.3241702132413762;0.07606875815706626;0.3738111574566796;0.37238080897219383;0.7786540199274441;0.2989429661078695
Baseline;-4.2;0.3378018127809579;0.07871284527915723;0.3786039398537575;0.3677393271070528;0.7684885974393865;0.3520859865634023
Baseline;-4.1;0.35980028086417803;0.08756118872028029;0.39261035275547673;0.37042887817012815;0.7785305439664878;0.43354185885616925
Baseline;-4.0;0.3950288913466524;0.10648150213132368;0.42189537552999834;0.38568311891969476;0.8222917201094919;0.49932133290969016
Baseline;-3.9;0.448446348921542;0.13947436593727058;0.47276566517342733;0.41898385535056715;0.9138096045658353;0.5058844319218272
Baseline;-3.8;0.5159742599897914;0.18342965747287465;0.5402007397581734;0.4661065115047194;1.0423367894688713;0.49151660702618827
Baseline;-3.7;0.5902877464196408;0.23257030517766175;0.6148898524364386;0.5190723402065691;1.1877172868779757;0.5004173623389576
Baseline;-3.6;0.6682957906609293;0.28484249428856145;0.693639700812219;0.5754160518702598;1.3431742068428942;0.5950677084591289
Baseline;-3.5;0.7459218835567594;0.33742883405357915;0.7720551200954962;0.6316525798355244;1.499292198247451;0.8351401572175154
Baseline;-3.4;0.817135505750584;0.3853430905128894;0.8419921774528909;0.6806485289078754;1.6384416260266148;1.1880315221528797
Baseline;-3.3;0.877514038751019;0.4248763158435471;0.8973613523135358;0.7170387136307417;1.747456835397629;1.547667669939628
Baseline;-3.2;0.9195048289944134;0.44981598474425066;0.9280885463103132;0.7320236889203313;1.8044579901454378;1.7874730628807862
Baseline;-3.1;0.9357097867944404;0.45403538395301624;0.9242308360220042;0.7168921906059325;1.7878306245741964;2.0379508594277285
Baseline;-3.0;0.9289573298196183;0.44037693547687606;0.8906028430782049;0.6762067471040325;1.7081409160701755;1.7142478064910112
Baseline;-2.9;0.905240055605443;0.4144923070836928;0.8366814862957899;0.6187489745536814;1.5861105034492429;1.5047722815778855
Baseline;-2.8;0.8676905291585779;0.37925986387264565;0.7672491973383249;0.5489117382955522;1.4321999833272097;1.2212665928830333
Baseline;-2.7;0.8207077612078706;0.3386438758430206;0.6888725250803018;0.4726772569677822;1.2607438714081107;0.9867050224404741
Baseline;-2.6;0.768221486496591;0.29640157608631057;0.6079636229967829;0.3960359024500102;1.0857317811795797;0.7922556993256746
Baseline;-2.5;0.7125365375350903;0.25478588538590063;0.5284465997866485;0.3226964639458938;0.9157122999511991;0.6148416529164571
Baseline;-2.4;0.6593796854457254;0.21919656607142368;0.45946042754204797;0.2611336652479226;0.7705835175575011;0.47054258979665686
Baseline;-2.3;0.614423146573162;0.19490958416837234;0.40993029190134056;0.21958954964373145;0.6697695933680645;0.37054962528074853
Baseline;-2.2;0.5760118936967302;0.18017356500217652;0.37690522465443355;0.19524970048313683;0.6067769941904029;0.31072822959385693
Baseline;-2.1;0.540476984005573;0.1713536752580982;0.3542410971874288;0.1823426301449782;0.5681281904195998;0.2852278132996737
Baseline;-2.0;0.505936930030507;0.1662107861736084;0.33814678412258203;0.17715120379311955;0.5455083833072081;0.2852207392154211
Baseline;-1.9;0.46964504977382315;0.161645370115842;0.32337380027939044;0.17458505572109484;0.5274096669416153;0.2979411028414498
Baseline;-1.8;0.42979303457067175;0.155968059171383;0.3070741393910117;0.17200420745790002;0.5074996682204738;0.3145612221646221
Baseline;-1.7;0.38589357688711257;0.14871172040783254;0.28845439563661746;0.168658457306603;0.48392874873330705;0.3298780474068419
Baseline;-1.6;0.3349570525889103;0.13699332606389625;0.26263269031100034;0.1599756094768665;0.44587680663294726;0.3296131088809968
Baseline;-1.5;0.2741017099982521;0.11806165343482622;0.22495068228238413;0.14160249223450716;0.3830053046984503;0.3002104883144465
Baseline;-1.4;0.20553347240809394;0.09318051253471715;0.17746437544671245;0.11506097174534169;0.2997499453439971;0.24634935058945828
Baseline;-1.3;0.1328106268869904;0.06456158237158505;0.12379684110176647;0.08317231582052731;0.20397471186685934;0.17704104992073244
Baseline;-1.2;0.058334895141692655;0.03393556973097045;0.06682895210430662;0.04835495261581091;0.10191584116261865;0.09966117651481277
Baseline;-1.1;-0.014868501294373893;0.0035432482677792976;0.010295408376453707;0.013782994895203515;0.0016854059230002605;0.02385913457390032
Baseline;-1.0;-0.08464832481935236;-0.02563255159781619;-0.04426403818395919;-0.019632526891451896;-0.09353420110062238;-0.04793324199059068
Baseline;-0.9;-0.14986204081938848;-0.05335376398846403;-0.09654675342932428;-0.05203744752721473;-0.18330550810530077;-0.11661202957563077
Baseline;-0.8;-0.20743955589735474;-0.07797936643739778;-0.14392274015898376;-0.08160135199630325;-0.26200603995123295;-0.17683797437353999
Baseline;-0.7;-0.25450761238782693;-0.0979836450592968;-0.18394824616730787;-0.10663888971054103;-0.32445380033125204;-0.22376128887673463
Baseline;-0.6;-0.2918960383109779;-0.11377456235333039;-0.21724905732476874;-0.12757427329162407;-0.3721855383942785;-0.2587212955406928
Baseline;-0.5;-0.32132232557713714;-0.12616963431657346;-0.24508430869545172;-0.14520854388337856;-0.4080660582946347;-0.28399197765268447
Baseline;-0.4;-0.34427299354030616;-0.1359567026390991;-0.26869338091857564;-0.160446514585197;-0.4351332520102815;-0.30268817532654335
Baseline;-0.3;-0.3627633238607988;-0.14420115329458927;-0.289758218788978;-0.17449986915951676;-0.4573954148152062;-0.3188411705277252
Baseline;-0.2;-0.37737023181040197;-0.15113150763140393;-0.3085943447203112;-0.18750757007940067;-0.4755193233894506;-0.33248299112255175
Baseline;-0.1;-0.38805539996812666;-0.156628940954473;-0.3249569806645827;-0.19920127394236165;-0.48895534643821215;-0.34246527543602223
Baseline;0.0;-0.3961701207355306;-0.1612791894447474;-0.3397291283113235;-0.21006598925153508;-0.4995745692763336;-0.34980284771079084
Baseline;0.1;-0.4029726320079421;-0.16562067243889445;-0.35371577607842486;-0.22053065618553802;-0.5090537466774343;-0.3553036773523486
Baseline;0.2;-0.40852207440115773;-0.16955099991801248;-0.3667070166376716;-0.23039590869018234;-0.5173943399909327;-0.35915660405895444
Baseline;0.3;-0.41280644214787454;-0.17289427100271748;-0.37838149056538484;-0.23938211496552597;-0.524524075935382;-0.36175126546920744
Baseline;0.4;-0.4153520830390969;-0.1753548529970672;-0.38822243649071986;-0.24713453082051284;-0.5296511260884351;-0.3625788322416552
Baseline;0.5;-0.4155185983845584;-0.17654612068491815;-0.3955692197668599;-0.25320421368962;-0.5317168930523177;-0.360972747883312
Baseline;0.6;-0.41400400735422505;-0.17658720104513304;-0.40058315510896136;-0.25755175946437436;-0.5314783493423363;-0.3577218945134266
Baseline;0.7;-0.41172369623039984;-0.17573460699856724;-0.40365039917500045;-0.26029260708356716;-0.5300324484771526;-0.3537963655808358
Baseline;0.8;-0.40922951220491655;-0.17400715777693065;-0.4047709207107042;-0.2612776917306734;-0.5279223461691434;-0.3499271069631087
Baseline;0.9;-0.4071261790360534;-0.17145814015630023;-0.40401092127492255;-0.26040249179809916;-0.5257630528602668;-0.3468959064087569
Baseline;1.0;-0.4052692048857889;-0.1681403857788304;-0.4014385644111069;-0.25779128564748355;-0.5234636153097902;-0.3445573310803258
Baseline;1.1;-0.4031720328819324;-0.164051618300598;-0.39703185341743286;-0.25358945069327277;-0.5205882940685722;-0.3424106568023513
Baseline;1.2;-0.4009105288129451;-0.15936199477945312;-0.39109287243514146;-0.2480569842302245;-0.5172729058956254;-0.34042045798543263
Baseline;1.3;-0.3984773569769757;-0.15425322067855163;-0.3839440017705229;-0.2414990106242394;-0.5135883441705094;-0.33846024623983517
Baseline;1.4;-0.39549160457243016;-0.1486711982838207;-0.3754859272146618;-0.23396505906417708;-0.5092247505312137;-0.33625933721680124
Baseline;1.5;-0.39169843241467284;-0.14255628366230244;-0.36562671967464677;-0.2254663891572397;-0.5039662111208827;-0.3336704508316872
Baseline;1.6;-0.3864598456057138;-0.1358426423356187;-0.3542246878174655;-0.2160996009809084;-0.4972808473538848;-0.330222386587673
Baseline;1.7;-0.3791438628240451;-0.1284531861859124;-0.34112772711202943;-0.20594837132958865;-0.4886367023324176;-0.32544491767128925
Baseline;1.8;-0.37024519494530495;-0.1205858782260929;-0.3267651146207218;-0.1952250658439949;-0.4784448042679408;-0.3196195045473056
Baseline;1.9;-0.3605041356957095;-0.11252964653784137;-0.31173275429426095;-0.18420652610900667;-0.46732372922042487;-0.3132001097692081
Baseline;2.0;-0.3505122020239293;-0.10443825859240707;-0.29641497708697795;-0.17303372116834215;-0.4557771103981807;-0.3065383091551164
Baseline;2.1;-0.3409933630706261;-0.09649189220727905;-0.281259346370172;-0.161855979344236;-0.44441320573338317;-0.30006802485564155
Baseline;2.2;-0.33209858703646766;-0.08888645692541086;-0.26660140934289345;-0.15092692823959464;-0.4333670301690056;-0.29392204685327616
Baseline;2.3;-0.323740932449855;-0.08175716301942693;-0.2526414263025041;-0.14046589104384477;-0.42258958949580006;-0.28809437091001566
Baseline;2.4;-0.31636102353989504;-0.07536491649438126;-0.2398841537604266;-0.1307632916542163;-0.4124200294952729;-0.2828437192109474
Baseline;2.5;-0.3102981178281672;-0.06995072515995382;-0.2287711701301074;-0.12209281029205599;-0.4031264351743076;-0.278393674011288
Baseline;2.6;-0.3055442372174362;-0.06545670708293017;-0.21926344289461408;-0.11443715058710957;-0.39476808655087403;-0.2747348002150032
Baseline;2.7;-0.3021733610352584;-0.06176150819600501;-0.21127272562066945;-0.10770022257870426;-0.3874661664512633;-0.2718446506032173
Baseline;2.8;-0.2996823888208118;-0.05872526805461842;-0.20446500786757849;-0.10179868570660489;-0.38093565645626803;-0.2695644264192856
Baseline;2.9;-0.29751069749662484;-0.056164445118727535;-0.19843463060806776;-0.09660734217655964;-0.37485482956898686;-0.2676973329503376
Baseline;3.0;-0.2961652494174878;-0.054086653023243336;-0.1934035325492136;-0.0921205199769588;-0.36960052173366975;-0.2663477943246084
Baseline;3.1;-0.2961727227115212;-0.05254461977799174;-0.1896432851743759;-0.08836656315383529;-0.36554995281735536;-0.2656494160092917
Baseline;3.2;-0.2980706265566697;-0.051476889727478436;-0.187318464409298;-0.08527913908848994;-0.363122076970976;-0.2656850478494386
Baseline;3.3;-0.3024494483190807;-0.050836004692150105;-0.18662574496657847;-0.0827952418396638;-0.36275971503962445;-0.2665472835306586
Baseline;3.4;-0.30851983681638373;-0.05054529240887007;-0.1871482123355115;-0.08086606320942558;-0.3639452553778142;-0.2680720873186644
Baseline;3.5;-0.31504350587643426;-0.05048142417480683;-0.18823944565329942;-0.0794260030405729;-0.36587064935495306;-0.270004344410939
Baseline;3.6;-0.321528757095229;-0.05065904075599548;-0.18969036764030456;-0.07847320606537167;-0.36816056752092763;-0.27223619004530697
Baseline;3.7;-0.32733561536300826;-0.051092659894830916;-0.19122569685753543;-0.07800506668464902;-0.37032967066350153;-0.27463122246869087
Baseline;3.8;-0.33175931825454796;-0.051614619553910224;-0.19240403262621797;-0.07793271522897971;-0.3719844690746239;-0.2770305086053364
Baseline;3.9;-0.33446271933830296;-0.05207343946451104;-0.192961380829475;-0.07817349376266503;-0.37297925016703104;-0.279338018891389
Baseline;4.0;-0.3342692691621565;-0.05227389429952023;-0.1922092004619902;-0.07860572330907267;-0.37257979362548355;-0.2812990861945943
Baseline;4.1;-0.3301641053893496;-0.05202407979804402;-0.18954164140218488;-0.07911695436563626;-0.37016851698842856;-0.2826886136195377
Baseline;4.2;-0.32296371537014323;-0.05145689012323462;-0.18542749900869993;-0.07975172575308509;-0.3661893802613818;-0.2836120882947304
Baseline;4.3;-0.31377893984540783;-0.050800383133322136;-0.18052740946564416;-0.08058269834021914;-0.36120578655997093;-0.28422228544686234
Baseline;4.4;-0.3041433170797845;-0.05019296269747553;-0.17567994002088305;-0.08170729792504616;-0.3562089790826377;-0.2847701325117704
Baseline;4.5;-0.2958500259972663;-0.04981637199442179;-0.17187306975651495;-0.0832423211600366;-0.35234001124269554;-0.28555137314115253
Baseline;4.6;-0.2889397605798676;-0.04978354171133059;-0.16916121146172447;-0.08515842687141717;-0.3494350047825474;-0.28651087618490667
Baseline;4.7;-0.28317108233266186;-0.050144840767920584;-0.16742909599092126;-0.0874021871148205;-0.34717870668176865;-0.2875468677568458
Baseline;4.8;-0.2789497770363836;-0.05111343607664942;-0.16695725379248483;-0.08997390440473119;-0.3455762454625848;-0.2886574190980795
Baseline;4.9;-0.27653281693156107;-0.05288446621845022;-0.16794056909169353;-0.09285892983517297;-0.3445320777143852;-0.28981343696950734
Baseline;5.0;-0.27718496201902276;-0.055432357675871735;-0.17101855877254035;-0.09613212256115578;-0.34500884591690273;-0.291243785545209
Baseline;5.1;-0.2827324467647818;-0.058718340660734114;-0.17711840811057478;-0.09991750303291091;-0.3484314084284783;-0.2932946416682567
Baseline;5.2;-0.2935893186307963;-0.06261242879106543;-0.18638995933807667;-0.104206041679058;-0.3551951481280202;-0.29603972303993054
Baseline;5.3;-0.31022349567764085;-0.0669510494288108;-0.1989984250525767;-0.10899411690535121;-0.3657793995151266;-0.2995739572633509
Baseline;5.4;-0.3343976145438372;-0.0718699648698422;-0.21589826354434916;-0.11439687252319075;-0.38135742007609075;-0.3041837933426068
Baseline;5.5;-0.36751708147245576;-0.07754506528774563;-0.23786832343589293;-0.12049321761054976;-0.40276715332891655;-0.3100693026989543
Baseline;5.6;-0.4116860081417091;-0.08404789884105224;-0.2660214376232144;-0.1274378526896225;-0.4315448578623222;-0.31761971440579373
Baseline;5.7;-0.46886468062489417;-0.09147625860328201;-0.30140191722351695;-0.13537061799464478;-0.4690839244455294;-0.32718657120460826
Baseline;5.8;-0.5377596698724654;-0.09972264475783721;-0.34320247814721405;-0.1441029039476538;-0.5142966600637209;-0.3384597277319399
Baseline;5.9;-0.6157094992241801;-0.10855943741589158;-0.39008273534302873;-0.15336273733124806;-0.5654950995824031;-0.35097621854505956
Baseline;6.0;-0.7002442501254755;-0.11803139980788924;-0.4410440950163661;-0.16291200769081993;-0.6210612958979684;-0.3642807932150518
Baseline;6.1;-0.7920701283376328;-0.12815497165412104;-0.49482298375555;-0.17246596608669407;-0.6790210407488022;-0.3778236511267554
Baseline;6.2;-0.8907978577657589;-0.13865649454260964;-0.5506695968560269;-0.18188846489880284;-0.7387089845945098;-0.3914407311702135
Baseline;6.3;-0.9821924290915298;-0.1493158390363014;-0.6081390841647112;-0.19110188636506642;-0.7998532249015717;-0.405078005658698
Baseline;6.4;-1.068024915969672;-0.15973998993576988;-0.6659569663584461;-0.1998761974757164;-0.8611615124483478;-0.41839726493826035
Baseline;6.5;-1.2052243544662442;-0.16953217221040706;-0.7229190075305203;-0.20800218143844784;-0.9214719287229176;-0.43110320319653006
Baseline;6.6;-1.2662007577369998;-0.17898265003767033;-0.7786969805527457;-0.2153651154855023;-0.9798411891969128;-0.44293087339828396
Baseline;6.7;-1.3700030397042928;-0.18854228562151754;-0.8329749023107054;-0.2218251008428993;-1.035053032059107;-0.4535222447034606
Baseline;6.8;-1.464311950331136;-0.1984944229429022;-0.8859099073324055;-0.22739094760230838;-1.086991584557106;-0.46287203034355695
Baseline;6.9;-1.5549637339251445;-0.20920133789511564;-0.9377930066747355;-0.2320928061974623;-1.1356217105960447;-0.470994914038962
Baseline;7.0;-1.6394623771391226;-0.2207382124296915;-0.987583404626446;-0.23566939467593429;-1.1791577021695598;-0.47736516392888984
Baseline;7.1;-1.7193108407329367;-0.23300796761416276;-1.0340928072873004;-0.23785204743137633;-1.2158718598604743;-0.4814836791475736
Baseline;7.2;-1.7923671897732225;-0.2463006735307678;-1.0765038246957888;-0.23841115219969478;-1.2439786512241255;-0.4828134914141584
Baseline;7.3;-1.8556317756218883;-0.26081556821748286;-1.1139225102069306;-0.23710762354745096;-1.2617028273555437;-0.4808171383281783
Baseline;7.4;-1.9098772127000379;-0.2763282212368523;-1.146516618372961;-0.23404611485345406;-1.269843882139991;-0.4757988693316513
Baseline;7.5;-1.956724377087684;-0.2926283679925783;-1.1749987976448244;-0.22947744302342343;-1.2701120402210986;-0.4683510105650459
Baseline;7.6;-1.9959424563837365;-0.30906577852840567;-1.1990648485866169;-0.22342379807890822;-1.263158000790483;-0.45871238853081575
Baseline;7.7;-2.027664415587748;-0.3249270262791928;-1.2185571699977578;-0.2159571375015421;-1.2499969505433306;-0.4472420860854349
Baseline;7.8;-2.0533423181623336;-0.34038998791003294;-1.2343132735858502;-0.20731527186654297;-1.2318414708569314;-0.43433740513311037
Baseline;7.9;-2.0740325138612876;-0.3556616352515327;-1.2469668792694444;-0.19767178755100723;-1.2094613282458049;-0.4202340385508494
Baseline;8.0;-2.092033836829441;-0.37093048343592283;-1.2578218977201248;-0.18740147981055522;-1.1849210732268158;-0.4056364009300921
Baseline;8.1;-2.1096811652128524;-0.3864301130841854;-1.268216052520203;-0.1768804995300437;-1.1602387683374715;-0.391219830507465
Baseline;8.2;-2.1253851930910495;-0.401296002906232;-1.2770183838500264;-0.16591041448406152;-1.1348324768355802;-0.37675883953944034
Baseline;8.3;-2.1366559510970538;-0.414310675385944;-1.2825019899921086;-0.15417142223280056;-1.1076923994896024;-0.36190374183350915
Baseline;8.4;-2.1417656975419197;-0.4248707959859326;-1.2836079985000532;-0.14144202868863687;-1.077717601505375;-0.34622215220259456
Baseline;8.5;-2.1390813488593983;-0.43226507093703326;-1.2790104286760657;-0.12743640393066347;-1.0438237332497504;-0.3291710031822124
Baseline;8.6;-2.128922696126714;-0.43575004200510126;-1.2682532847255805;-0.11216053978367135;-1.0070864158260182;-0.3110287027440046
Baseline;8.7;-2.1081159911979563;-0.4348942872225212;-1.2514914096546592;-0.09575942422191197;-0.9664154605032902;-0.2922768814274619
Baseline;8.8;-2.074419071453879;-0.4285939598585946;-1.2276901912852862;-0.07808253977788304;-0.9211666056257144;-0.2729606954519097
Baseline;8.9;-2.0424489825870102;-0.41590700806295366;-1.1956674689492006;-0.0590474529706837;-0.8817409439295893;-0.25323381501377273
Baseline;9.0;-2.0072146101921584;-0.39738023795799915;-1.1556268475738358;-0.03882529959022474;-0.8455225807360645;-0.23309190012466097
Baseline;9.1;-1.905551624074728;-0.37381065696341587;-1.1114547720260086;-0.017557773594747417;-0.7682553164617261;-0.2122911221587378
Baseline;9.2;-1.8970243351627447;-0.34643900579970044;-1.0660852318512175;0.004272361354692222;-0.7465815261484519;-0.1913566748369817
Baseline;9.3;-1.805811961661285;-0.31672568340966745;-1.0082785507575371;0.026140359199603225;-0.6922295018013784;-0.17081592091921927
Baseline;9.4;-1.7014808609089984;-0.28467428143897244;-0.9411505245625582;0.04816514492052448;-0.6429272806049369;-0.15014560671860444
Baseline;9.5;-1.7291451537327474;-0.25011355813893843;-0.923967937094031;0.0704833184149134;-0.5961656150549803;-0.12887477704957107
Baseline;9.6;-1.5910398149864333;-0.21328474015052823;-0.8318533180696752;0.09322877687944864;-0.5515512465321208;-0.10632407345680672
Baseline;9.7;-1.5091952562635873;-0.17434921903599232;-0.7751183328190772;0.11655516755957862;-0.4937066352552417;-0.08185737222811706
Baseline;9.8;-1.3795970275813634;-0.1345822057064412;-0.7066178639510712;0.13981863874800116;-0.42904878384805656;-0.05650678217140115
Baseline;9.9;-1.4719958900529226;-0.095738287998409;-0.6682731321309232;0.1621125046157852;-0.4108859720084048;-0.031836943137703244
Baseline;10.0;-1.2488960432325102;-0.058558188121885735;-0.5900714737133992;0.1829112616552253;-0.33754773411686223;-0.009092212895022378
Baseline;10.1;-1.229876354411176;-0.023874009943244623;-0.5446744838500761;0.2016309057878365;-0.3100775492265946;0.010428760197157771
Baseline;10.2;-1.1954519120554785;0.006877902656250434;-0.504799522641247;0.2176725682557512;-0.2874948702112583;0.02567888620971459
Baseline;10.3;-1.1690993367473315;0.03260428558098205;-0.47420577995805946;0.23060780618955246;-0.27520353814346343;0.03567666682728898
Baseline;10.4;-1.1541642029677996;0.051484581825984144;-0.4561151389803477;0.23972872048773475;-0.27580966112816085;0.03979907504153246
Baseline;10.5;-1.1708203778667956;0.061894032902493734;-0.4555522621667647;0.24446199272609626;-0.2946888876359619;0.03778550884611942
Baseline;10.6;-1.2148619047328868;0.06458286020963655;-0.4709718400564791;0.2449448939790564;-0.33039643751175163;0.028715924414508542
Baseline;10.7;-1.2769433111870816;0.0608661050661663;-0.4993542965854756;0.2415448527827957;-0.3803356565858227;0.012312370943893924
Baseline;10.8;-1.3543842394074908;0.05229889990793524;-0.5380960795779703;0.23496873464659007;-0.44082492837760867;-0.010686328240731235
Baseline;10.9;-1.4431445181810032;0.040757824000428045;-0.5840197375933815;0.225967270764186;-0.507655879647416;-0.04028949475928112
Baseline;11.0;-1.5397225402337886;0.02664737344016377;-0.6357269949843429;0.21496083606110883;-0.5806727041959459;-0.07336589672858462
Baseline;11.1;-1.6410748737160707;0.010130745343411185;-0.6920197801672527;0.20255980095946136;-0.6595298979336555;-0.10505307509366268
Baseline;11.2;-1.7444910751709033;-0.00809690809116681;-0.7517079856940798;0.1886791066723248;-0.7450430108137684;-0.13815868490078298
Baseline;11.3;-1.847045679054955;-0.027413911339170483;-0.8135574177171145;0.1732380229894508;-0.8381784117311462;-0.17400410991639426
Baseline;11.4;-1.9443004198021496;-0.04634552628070754;-0.87430371320744;0.15779041596969723;-0.9324107332119471;-0.20744431506397198
Baseline;11.5;-2.032816486386511;-0.0631197806963808;-0.9307303277727845;0.14363801709959123;-1.0203658684110959;-0.2374333098153354
Baseline;11.6;-2.1072475930987897;-0.07681119328301733;-0.9795575672106223;0.13225771007759235;-1.096734285339739;-0.2500674420021287
Baseline;11.7;-2.1618317592565246;-0.08638921391280263;-1.0171406400376197;0.1257473444748749;-1.1544157184309238;-0.22966867289001947
Baseline;11.8;-2.1989030238939433;-0.0907425177285992;-1.0436266072283429;0.12240496562225012;-1.1939279806049417;-0.19455025175116258
Baseline;11.9;-2.2223530739566693;-0.08920483602018692;-1.0603471528147805;0.1196961374756933;-1.2184859975538824;-0.1632849369566003
Baseline;12.0;-2.231301399494879;-0.07992984645170864;-1.0652117964656531;0.11966355476605095;-1.2189231460539407;-0.14455340746506362
Baseline;12.1;-2.2266516934489955;-0.06138721841452899;-1.0572020748629383;0.12261667504510676;-1.1906727346969141;-0.1582549456907305
Baseline;12.2;-2.2062376887134674;-0.034340152395651025;-1.0361258312694845;0.12869453191780966;-1.133862445246221;-0.17818819244546535
Baseline;12.3;-2.163196852080893;0.000348560541000964;-0.99975370373964;0.14177466401123162;-1.0449140823896936;-0.16469720254593057
Baseline;12.4;-2.104551728563517;0.04044258653545807;-0.9533196029949531;0.15363743692120924;-0.9517217889538347;-0.16082562033642933
Baseline;12.5;-2.0376215176390753;0.08328349721616579;-0.9025753590054366;0.14749407971129358;-0.8752440637049492;-0.17456359141472344
Baseline;12.6;-1.94783948146475;0.13009085288219246;-0.8397621444808001;0.1286973791463275;-0.8001181294647512;-0.19305310513876695
Baseline;12.7;-1.8211449608394643;0.18246809434374622;-0.75692040597598;0.14502989919688947;-0.7209532209310439;-0.2668340408887806
Baseline;12.8;-1.6432952468451374;0.2407226909676039;-0.6473026529925123;0.20988955053404545;-0.5741470078131812;-0.1870530597731186
Baseline;12.9;-1.399653474168555;0.3054801831959084;-0.5036308203582065;0.1646008971412991;-0.3015322842774264;0.24898108748025383
Baseline;13.0;-1.1067071699488986;0.3741828931647664;-0.3353705067284247;0.3369837146609109;0.019664698139429504;0.8954021261896212
Baseline;13.1;-0.7949037865539568;0.44241612538109276;-0.1599466887111456;0.47712973508274636;0.3739362416557359;1.3056920452617904
Baseline;13.2;-0.47753059493507966;0.5096923238763447;0.01673593767647308;0.4902382057141619;0.5147134855226447;1.172874285254819
Baseline;13.3;-0.1681259348257269;0.5752577382897206;0.18842377187522796;0.5215763265932933;0.6701207614764257;1.1136367726892829
Baseline;13.4;0.10014563107677432;0.6339024310003687;0.3357965026352181;0.5021511603477888;0.7344948051333713;0.9681845974897341
Baseline;13.5;0.30290433615365675;0.6811387370628603;0.44357108544871604;0.45415806015626803;0.7130030335432131;0.8189936674281215
Baseline;13.6;0.42648735172723207;0.7110419212890822;0.4994267484780872;0.40076202821357043;0.6504274091524156;0.6890148738925426
Baseline;13.7;0.42657910825975787;0.7176796502226379;0.48203556782684576;0.3760427620246176;0.597587523127391;0.5769742908230366
Baseline;13.8;0.31879610917414425;0.7045499794470418;0.40319580811951017;0.37047193898336594;0.5393968271640279;0.5021030934019404
Baseline;13.9;0.23228101439861248;0.6782515588826259;0.31004975483402575;0.3663477548041856;0.48257517147314566;0.48852112520036606
Baseline;14.0;0.08744646840976866;0.64178897931561;0.17566828432931736;0.35314061577285205;0.3916702594788344;0.4870629470181962
Baseline;14.1;-0.4406012291681094;0.5993277503745835;-0.06579102662740599;0.318844616574232;0.13865645223696177;0.4285372489528605
Baseline;14.2;-0.782554213963981;0.5552619222043607;-0.31556194770965185;0.27157620062536747;-0.0614643480173207;0.3373671027255023
Baseline;14.3;-0.9690902584805938;0.5122472742763389;-0.4361456003859967;0.22444095915173712;-0.23434888811377697;0.2571025263686497
Baseline;14.4;-1.0067682801611761;0.47698705731420876;-0.4882291841544788;0.18664992756379828;-0.36566446989198553;0.18075146214761695
Baseline;14.5;-1.17409082535932;0.4558923513263897;-0.5810194326888878;0.16789502555418956;-0.5346680006524664;0.10613948977069132
Baseline;14.6;-1.3668539284145789;0.44652809597434917;-0.6718083801258841;0.16503068703413515;-0.701476014839713;0.03950236880553604
Baseline;14.7;-1.4426932771529062;0.4444615722287617;-0.6978697301327097;0.1706766941155049;-0.8242315238448867;-0.027051962574856425
Baseline;14.8;-1.4536844120750567;0.44575434772795663;-0.686819352406455;0.18130798868009013;-0.8913534561898402;-0.06322985856135777
Baseline;14.9;-1.4647921846942031;0.44545890723230475;-0.6742493754792482;0.19261490798334346;-0.8936840091617011;-0.03255283467340231
Baseline;15.0;-1.4663593153633228;0.44273089278174016;-0.655804503636447;0.2034835976732179;-0.8510303326844646;0.024244140389151347
Baseline;15.1;-1.442637675397548;0.43862772539707784;-0.6231139570272797;0.2145827626479191;-0.7809988135774919;0.06835105991763957
Baseline;15.2;-1.3885416254173535;0.4313640792751654;-0.5770681769298527;0.22425931690347145;-0.7021661064057181;0.08548977453723605
Baseline;15.3;-1.3100547171466692;0.4186875922779665;-0.522920487131703;0.23061256628249538;-0.6504886784631392;0.03767559186746183
Baseline;15.4;-1.1915628233630535;0.4017332940304046;-0.45632042198062717;0.23372920582275292;-0.5812942489326378;-0.008244284003411373
Baseline;15.5;-1.0258292012069345;0.38175380782760815;-0.3712030727408475;0.23414198685254828;-0.43040975971522855;0.0541518642661698
Baseline;15.6;-0.8815381795874551;0.3574576940361176;-0.29019387034894617;0.23025919906084713;-0.2507341036223103;0.1431736461740174
Baseline;15.7;-0.7970534029597527;0.3239005994989146;-0.2525426453703208;0.22157753261327962;-0.07907479540414819;0.21579986392148154
Baseline;15.8;-0.840710554653552;0.27322999713379126;-0.2875384571738806;0.20860561220039742;0.06363450247976488;0.3200313666029482
Baseline;15.9;-1.0323662269276417;0.22671007420211087;-0.2918285453767471;0.19081096252715746;0.21486764336457576;0.46047179921129544
Baseline;16.0;-0.6104961874350181;0.1985522112881526;-0.1297103396326209;0.17411556466464528;0.717435176671879;1.0485818904027315
Baseline;16.1;-1.2875099616847008;0.05965831604485139;-0.539587138960905;0.16374901882724568;0.9865364266724628;1.9967042983981722
Baseline;16.2;0.2708456746661456;0.08366334272877118;0.1487217199591102;0.1554830151297022;2.717297096660216;4.096311401905873
Baseline;16.3;0.15282629987555296;0.05297208287095856;0.043784815163953716;0.14611297014447366;3.0892530069744675;4.819056779487038
Baseline;16.4;0.06557065337618706;0.03925879353581152;0.015064343905615729;0.1262252367672163;3.109581291718615;4.530555991316113
Baseline;16.5;-1.955076935983132;-0.26276696579249936;-1.0015948767759086;0.08281901374409184;2.5304397950118673;4.3719414382629616
Baseline;16.6;-1.3949478963549424;-0.4543542688566564;-0.7188851845655337;0.023913618445440044;2.6313481276160955;4.13340421317905
Baseline;16.7;-0.6541589595670567;-0.272263883404813;-0.3840012700704607;-0.02363843958296563;2.41608414732322;3.646723782153366
Baseline;16.8;-0.24347326124428204;-0.23169581767448033;-0.3045421446274572;-0.04966503311495707;2.361518783749041;3.4346519946279956
Baseline;16.9;-0.6327547625137706;-0.4272385529738765;-0.5590073889900733;-0.10624884753991104;2.2974802149633984;3.1591177148265897
Baseline;17.0;-0.47299149300037513;-0.3612760035703424;-0.3892699623307303;-0.07413784973061421;2.2910224573831597;2.7462005212238907
Baseline;17.1;-0.28533334669212707;-0.29047667378556863;-0.24743630550201523;-0.03670786471629217;2.424406033353928;2.639415874228714
Baseline;17.2;-0.38719263092865397;-0.374571447645371;-0.32608760895247535;-0.03980814231464613;2.565650400462892;2.606454837947971
Baseline;17.3;-0.3204710840427669;-0.3438031508443231;-0.23717638840647925;-0.011448305542471893;2.534316511159136;2.5214501807503353
Baseline;17.4;-0.24567058244510864;-0.26503583139415987;-0.11462226587611735;0.01168240641202889;2.409080534184171;2.421513127406013
Baseline;17.5;-0.008740255405339958;-0.23841284900276527;0.014359777731312029;0.032931018663715506;2.3824676880212774;2.3772324264234515
Baseline;17.6;-0.41796315568537157;-0.22794717769798023;-0.12001696841445941;0.05117889368037165;2.1481229866989713;2.370811405278883
Baseline;17.7;0.7887332241497633;-0.08599756346118248;0.4599253661991183;0.0693186070423506;2.441489849869927;2.399868934633534
Baseline;17.8;0.7877458604737821;-0.10836651727334168;0.3723208020760964;0.08696072260430032;2.395123793841276;2.4174530449564786
Baseline;17.9;0.8565154686082712;-0.03868421924513221;0.4822593554491812;0.10321981565457516;2.5649826948076413;2.4599707459484064
Baseline;18.0;1.1050107376412033;0.017795276693168383;0.6687224481423506;0.11922879044425638;2.744643727116551;2.5027760606950054
Baseline;18.1;1.1222015414748547;0.05287436989506844;0.7058146101432712;0.13634143316241687;2.8264306051101507;2.5443029018991847
Baseline;18.2;1.1629635857377814;0.07568836270109891;0.7235173338480045;0.15507199784802417;2.8633392121792403;2.581066515132312
Baseline;18.3;1.1080633551740782;0.09765470369473572;0.7234506818719018;0.17563289035803908;2.8908439465177755;2.6113967241966156
Baseline;18.4;1.0691094337291167;0.12403980509332602;0.7424183011725809;0.19906441792774832;2.9226865449306008;2.6375867241353106
Baseline;18.5;1.1372760547713696;0.1581790076314551;0.8036427092579181;0.22630826705919826;2.9662942237053276;2.6620201851640912
Baseline;18.6;1.2768912328500717;0.19815173343254955;0.8958997705112122;0.2568555929276277;3.017915181962823;2.6825181932304476
Baseline;18.7;1.434071793278373;0.23980002402727596;0.9990346407456165;0.28988705018173366;3.068157815714062;2.6978729376009998
Baseline;18.8;1.5783707752413623;0.2793576595732281;1.0975015347815438;0.32457282115503894;3.10887720568637;2.702710412773775
Baseline;18.9;1.6753680337866648;0.3127215897640605;1.1741565861872028;0.359886207950912;3.1323329743636092;2.6922504387742867
Baseline;19.0;1.73462367886341;0.34100757703373663;1.23313797868615;0.3955826704745702;3.1467609799253493;2.6739696386115384
Baseline;19.1;1.7804140489988232;0.3668617632679183;1.2852793756035865;0.43168890319582687;3.1634412612269953;2.6563948649415607
Baseline;19.2;1.8207704240293596;0.3913267415067656;1.3337447899412442;0.46770897383558463;3.192188127396947;2.650131007043396
Baseline;19.3;1.8650616377777176;0.41564663431723226;1.3824405239604056;0.5031984257604227;3.2431499404164343;2.666130451492415
Baseline;19.4;1.9111522909664531;0.4395525596470966;1.4304041444944193;0.5379827375209434;3.3118273695700973;2.6999758120695807
Baseline;19.5;1.9519242539129786;0.4621911433701822;1.4744636646931744;0.5718635946429673;3.389019339680768;2.743150191950267
Baseline;19.6;1.9864303809024397;0.48341454335879774;1.514423032132516;0.6048809084920235;3.47022554503294;2.790328696436598
Baseline;19.7;2.013858351477655;0.5030801806947958;1.5502288955473578;0.6371315473445955;3.549723297790762;2.834894990274714
Baseline;19.8;2.0362570846036547;0.521444764127474;1.5826489749266965;0.6682511427082094;3.624399594873778;2.875511336481148
Baseline;19.9;2.0569119179007407;0.5389115440546588;1.612895187237882;0.697826903308779;3.6934922680024194;2.913345934418084
Baseline;20.0;2.0780428432067577;0.5557740696260245;1.6419373910086748;0.7255524814421994;3.7521108782716928;2.9454491218742715
Baseline;20.1;2.101677053288575;0.5722934211585562;1.6706303494971664;0.7511106598410908;3.795589441832342;2.9692061566826284
Baseline;20.2;2.1273055315491556;0.5883478394365627;1.6986990741718424;0.7745238385157087;3.825412052347212;2.9852306117547354
Baseline;20.3;2.1535390022740195;0.6037074806427594;1.725567687619174;0.7959685366166216;3.844485739192157;2.994517905171204
Baseline;20.4;2.1792179623752173;0.6181270442492792;1.7505578139646314;0.8154022597909183;3.8551107545049987;2.9988113929385793
Baseline;20.5;2.202936608907889;0.631318828819607;1.7728625183996032;0.8328284048423029;3.8604420352339934;3.0004194818044514
Baseline;20.6;2.224501768589567;0.6432866241406012;1.7926329025348968;0.8484196559068717;3.861770305443125;2.9993816316318265
Baseline;20.7;2.2439546071515073;0.6540836801287009;1.8101826286799936;0.8623055170167495;3.859312713750543;2.995134492483703
Baseline;20.8;2.2609858585628464;0.6636667526983784;1.825527588103438;0.8747712898754445;3.8555520991022156;2.9883901316121637
Baseline;20.9;2.2753544631016265;0.6720153795347272;1.8387422902266612;0.8861151311999249;3.852841272011193;2.9797386826121155
Baseline;21.0;2.285926763197936;0.6789106369971583;1.8492667785404153;0.8961695425987175;3.8505670931857683;2.96950172330775
Baseline;21.1;2.2915022909030647;0.6840519477397731;1.8562748574550136;0.9046568498924712;3.8475844179436614;2.9582094519465123
Baseline;21.2;2.2914794458303405;0.6873600996827722;1.8595541625131329;0.9114258432266551;3.842722183290266;2.9456484230716136
Baseline;21.3;2.28494967588089;0.6887401390561081;1.8588384096454114;0.9162792890098883;3.8344198009420163;2.9315296285430925
Baseline;21.4;2.2721381760883057;0.6879921155070772;1.8535583969108975;0.9191736135642659;3.8227799887964764;2.916783195246343
Baseline;21.5;2.2537871535629446;0.6850048633349841;1.8433711524386736;0.9201770472069484;3.808512659022674;2.9024185052231743
Baseline;21.6;2.2280027431590685;0.6794668939088488;1.827417037692574;0.9191394607532484;3.791182547607785;2.8893652157082546
Baseline;21.7;2.1939080334656236;0.6711252955749396;1.804968193531006;0.9159548942477995;3.7705050939720914;2.878583382125841
Baseline;21.8;2.1526159775770832;0.6603027628095433;1.7769597710446359;0.910820462140836;3.7469721869839443;2.86983360325232
Baseline;21.9;2.102087904043162;0.647330621675386;1.7437451983011254;0.9039605204481083;3.7207882375738714;2.8624325647930053
Baseline;22.0;2.0456854447697115;0.6326339859712249;1.705405883576864;0.895754014909218;3.6926311338015854;2.856240900770663
Baseline;22.1;2.0047134664248194;0.6174511486187884;1.6693922761680904;0.8866283946284597;3.665308859263937;2.8509845404866905
Baseline;22.2;1.9796999831199047;0.6020264550683434;1.6375159099285108;0.8766109180547739;3.6391147187836648;2.8462120164370965
Baseline;22.3;1.8979832810275266;0.5836557949355177;1.583229365595101;0.8656871141330162;3.6063337637957815;2.841646411522974
Baseline;22.4;1.7682274618202767;0.5633027530349111;1.5146364528189782;0.8539357629227835;3.56901898349522;2.8365764317994673
Baseline;22.5;1.8836120250941644;0.5529002108449683;1.5474858141888603;0.841409330346119;3.559251091682481;2.830290359006911
Baseline;22.6;1.601081642203944;0.5276160237766563;1.4346154067061203;0.8284927609317334;3.508523604304857;2.823150717997062
Baseline;22.7;1.5517723425595813;0.5121663889494315;1.4123064181720073;0.8157142066373364;3.4837234311649654;2.815790954786949
Baseline;22.8;1.4835144215641964;0.49634536079946745;1.3784170967361966;0.8033049414429287;3.4566732461626586;2.808626378218392
Baseline;22.9;1.443277583002466;0.48156976256315254;1.3443228016241369;0.7915216401371667;3.4309854882914497;2.802190908041352
Baseline;23.0;1.4203739910236521;0.4683865162922167;1.310425230859817;0.7808166733651545;3.407358359203461;2.7967202461898077
Baseline;23.1;1.420421729193114;0.45804295774318327;1.285023215110697;0.771546526857998;3.3885107968267025;2.7922465636532676
Baseline;23.2;1.4281817089901034;0.45123593653666205;1.2689344180801543;0.7642560498354971;3.375437936733695;2.789189622806046
Baseline;23.3;1.4230584257573984;0.44844266936691124;1.2613336630961163;0.7594489941712101;3.3686133977360537;2.787925650535536
Baseline;23.4;1.411712544574148;0.44938657025477813;1.2620861460674515;0.7569324098001369;3.367674118841631;2.7882855669169047
Baseline;23.5;1.404670803486507;0.4534863419089312;1.2701397069099194;0.7563313313796307;3.3717532115000104;2.790003866599311
Baseline;23.6;1.40752856314388;0.4601478565591739;1.2841127034110569;0.7573040889000096;3.3798979599999193;2.792743274019837
Baseline;23.7;1.4268006128970017;0.4686342263046397;1.3023961930885273;0.7594081282626739;3.390944622035156;2.7960859476555386
Baseline;23.8;1.4593627477708173;0.478714879624043;1.32444372876399;0.7625058800182547;3.4045482109157303;2.799988907023206
Baseline;23.9;1.499070074934398;0.49030612711288946;1.3500347599410274;0.7665561111503276;3.420603216933384;2.8044993066013326
Baseline;24.0;1.542344790209608;0.502931990225675;1.3780717330282535;0.7712616086663058;3.4383870142914965;2.809472897918921
Baseline;24.1;1.5853151832897021;0.5161516936874948;1.4075316138824263;0.776344718623764;3.4572316811077313;2.814787414466908
Baseline;24.2;1.6275962393336014;0.5295907738565999;1.437622398066427;0.7816101331675247;3.4765820023073095;2.820272234716681
Baseline;24.3;1.6698540547877387;0.5427836926193299;1.4673764571996113;0.7868184672463885;3.4957456197766827;2.8256922047062503
Baseline;24.4;1.7121411434086493;0.5556250160789631;1.4965838249576873;0.7919305257158973;3.514568704430003;2.830993428964452
Baseline;24.5;1.7545806222064577;0.5680302098115941;1.5250888755893541;0.7969233749086273;3.532931844450909;2.836126274510211
Baseline;24.6;1.794965583386336;0.5793790938578978;1.55154894379955;0.8014469333950291;3.5499018087478964;2.8408235284235825
Baseline;24.7;1.8307880005826016;0.5890791739480816;1.5746622746988876;0.8051561385013013;3.564577661880678;2.844837064452059
Baseline;24.8;1.8597922283473407;0.5964711290568676;1.5930206383006151;0.8076847583269169;3.5759783616288283;2.8478764669213508
Baseline;24.9;1.8798070972041963;0.6009228013618744;1.6052680633432512;0.808678901793253;3.5831572437278734;2.849661269488652
Baseline;25.0;1.891463287065899;0.6026437389178145;1.6118202498696954;0.8082450888439174;3.586395742515432;2.8502783466658705
Baseline;25.1;1.8963533819929745;0.6021088306890121;1.6136625629894974;0.8066387633056511;3.5863712578755225;2.8499292646583267
Baseline;25.2;1.8953047854767426;0.5996123197148027;1.6113660632804754;0.8040055039185718;3.5834666190142235;2.848733958555278
Baseline;25.3;1.8895142631071415;0.5955645805945533;1.605745733413361;0.8005531702378956;3.5782333137163773;2.846862262534107
Baseline;25.4;1.8797906783628786;0.5902147183930442;1.5973301889577751;0.7964176431591445;3.5710381583049413;2.844419194187898
Baseline;25.5;1.8665504853155195;0.5836968590798426;1.5864064681559888;0.7916729964409681;3.5620800146388047;2.841458766376487
Baseline;25.6;1.851285443871193;0.5764673161156155;1.5739451257989412;0.7865663925411104;3.5520311919851943;2.8381739456384913
Baseline;25.7;1.8354552588627593;0.5689690076940161;1.5608919069561384;0.7813389231203125;3.541548473774575;2.834752964795846
Baseline;25.8;1.8190985383586407;0.5612752909677861;1.547342889833267;0.7760154742068357;3.5306782189217873;2.8312122063744134
Baseline;25.9;1.8020636241325558;0.553423206848362;1.5332951626057358;0.7705936654016625;3.5193898148645015;2.8275471804595833
Baseline;26.0;1.7839782744726875;0.5453421366222777;1.5185556178889197;0.7650258283917619;3.507539651437467;2.8237205492582493
Baseline;26.1;1.7643037780501825;0.5369162796300397;1.5028298830340043;0.7592389897401519;3.4949122260169627;2.8196744030834155
Baseline;26.2;1.7436825785254193;0.5284050012544297;1.4866116842109331;0.7533498783317922;3.4818268323826684;2.815502718074896
Baseline;26.3;1.7229935424396352;0.5201223199048517;1.4705279677211847;0.7475073190500776;3.468702402306258;2.8113282831617328
Baseline;26.4;1.7026926566436664;0.5122868919732024;1.4549706319943914;0.7418068918612697;3.4557812039959463;2.807222413301652
Baseline;26.5;1.6832781719326633;0.5051227724256941;1.4403505244048942;0.7363463785949014;3.443321927031941;2.803261457196353
Baseline;26.6;1.664747040281851;0.49860123063026673;1.426629907878425;0.7311144698840106;3.4313213215439227;2.799450887103947
Baseline;26.7;1.646812587107224;0.4925831695056333;1.413556841092185;0.7260523029444395;3.419640001662641;2.7957578882065253
Baseline;26.8;1.6296686360550918;0.4870722904147575;1.40119088575167;0.7211593706928134;3.408353390758924;2.7922114737177184
Baseline;26.9;1.6134538004319507;0.48204067799829264;1.3895378436836285;0.7164220639749637;3.397506906413751;2.788832629359458
Baseline;27.0;1.5978509179178468;0.4773773146720677;1.378371940458023;0.7117997688866158;3.3869612596715335;2.785585433512227
Baseline;27.1;1.5826020121989908;0.47300263516716523;1.367523379870205;0.707264365729924;3.376608756855788;2.782441926368162
Baseline;27.2;1.5672235342023573;0.4687334066296218;1.3566312857506961;0.7027451753160738;3.366228430435509;2.7793441617255272
Baseline;27.3;1.5512103681653224;0.4643833234398862;1.3453257346162397;0.6981713345922955;3.355591072263204;2.7762310659584113
Baseline;27.4;1.5349730692891574;0.4600385204997828;1.3338335315064667;0.6935697359876327;3.344876679131322;2.7731590085714277
Baseline;27.5;1.5191725142318955;0.4558498295474873;1.3225325377633101;0.6889889326675496;3.334374439337883;2.77021688996222
Baseline;27.6;1.5041876665468825;0.451919693992453;1.3116627871780597;0.6844702788754073;3.3242596825252884;2.767456004868733
Baseline;27.7;1.4904876710113255;0.4483783886971988;1.3015248826261105;0.680065140646847;3.314748218484919;2.764938733876356
Baseline;27.8;1.4783637367209943;0.44525715066179483;1.292244252109099;0.6757791304856644;3.305963422408845;2.762708168726867
Baseline;27.9;1.4679173548502993;0.4425354588200552;1.2838289700374466;0.6716026473768268;3.2979463886105274;2.7607832257406812
Baseline;28.0;1.4596129473250947;0.4402882436777942;1.2765090145200748;0.6675520402134767;3.2908927657930214;2.759226658881781
Baseline;28.1;1.453858822985846;0.43857781685213393;1.27048277430651;0.6636419141877585;3.2849754515616603;2.7580945716332472
Baseline;28.2;1.450443686265963;0.43736612024167254;1.2656527466628518;0.6598813927619931;3.2801201996197484;2.7573608168420014
Baseline;28.3;1.449043991356274;0.4366047076847339;1.2618788577807054;0.6562816320699376;3.2762081686680453;2.756981616856084
Baseline;28.4;1.4492258819785864;0.43620537074628984;1.2589363433484895;0.6528450525717506;3.273076186208071;2.75690667895109
Baseline;28.5;1.4504622090888288;0.43606371644021724;1.2565547281891591;0.649572656248985;3.2705234025740797;2.7570731415444456
Baseline;28.6;1.452701399646747;0.4361814722318549;1.254734109181575;0.6464757645570494;3.2685345276383524;2.75746643925964
Baseline;28.7;1.455981629897856;0.436575645412252;1.2535178269528497;0.6435664990142786;3.2671298403522124;2.7580838138290344
Baseline;28.8;1.46013315022938;0.43723195311650276;1.2528553195970193;0.6408574307978379;3.266247456010671;2.758893562393248
Baseline;28.9;1.4650128735682397;0.43814111722153815;1.252709734732691;0.6383601537869339;3.2658346582347155;2.759866173481039
Baseline;29.0;1.470292884908405;0.43922974629558453;1.252899944044655;0.636078109504254;3.265771316980893;2.7609687100310722
Baseline;29.1;1.4755267908260485;0.4403949025234333;1.2531721184058258;0.6340135271173537;3.2658933596227318;2.7621595186401136
Baseline;29.2;1.4805538567270276;0.44159080189594047;1.2534261510816753;0.6321634370569518;3.266139577113452;2.7634216575781325
Baseline;29.3;1.4852037802284732;0.44276684107912434;1.2535515294108013;0.6305233819946183;3.2664449149238948;2.7647388009556435
Baseline;29.4;1.4890321854858115;0.44383317466519756;1.2533188078885704;0.6291008880998259;3.2666455352439128;2.7660618338694745
Baseline;29.5;1.4916548440834196;0.4447156041597413;1.2525381482093776;0.6279030004077901;3.266598145839195;2.767343617100635
Baseline;29.6;1.492558463706552;0.4453075057871523;1.2509345040633146;0.6269350734916408;3.266112955354439;2.7685319436403777
Baseline;29.7;1.491260354325739;0.4455088852342266;1.2482513899853993;0.6262021390547234;3.2650109844375494;2.769576307849343
Baseline;29.8;1.4879145117166406;0.4453418462936076;1.2445699133301416;0.6256914700392313;3.263337834578593;2.7704781830056886
Baseline;29.9;1.4828529757075017;0.4448613733412916;1.2400602266630933;0.6253832487375188;3.261201391153448;2.771255825756767
Baseline;30.0;1.4763454805782459;0.44411584507669044;1.234877641643509;0.6252671472177287;3.2586906637071564;2.771917193807589
Baseline;30.1;1.4687502453857118;0.44317064379000826;1.22922430120963;0.6253298593592085;3.2559253621120785;2.77247722025509
Baseline;30.2;1.4601978552620274;0.44204262327471433;1.2231553426865416;0.6255532178194025;3.2529413967587546;2.772942688139036
Baseline;30.3;1.450735159612714;0.4407335970837405;1.2166825734246904;0.6259224902028544;3.2497462987018197;2.773314641314787
Baseline;30.4;1.4406296791594109;0.4392837460323511;1.2099280416499605;0.6264113361231658;3.246420692054449;2.7736099464433863
Baseline;30.5;1.4301362955363768;0.43773170897288693;1.2030064097554982;0.6269938162563617;3.2430413115585353;2.773845962423982
Baseline;30.6;1.4193942550256082;0.43610574099598143;1.1960139456923562;0.6276700380081577;3.239656308249214;2.774021938898948
Baseline;30.7;1.4085585984950315;0.43443836918666445;1.1890661061125716;0.6284441167854924;3.2363203919699677;2.7741334835422684
Baseline;30.8;1.3976523190885288;0.4327402538799383;1.1821953959211555;0.6293203628848563;3.233043922735381;2.774177272364968
Baseline;30.9;1.3866816474234618;0.43102068100931756;1.1754300025439077;0.6303063928989978;3.2298331467521786;2.7741485198654106
Baseline;31.0;1.3758875862342075;0.42931865838652605;1.168907677667952;0.6313882994706255;3.2267612277131485;2.774048172495924
Baseline;31.1;1.3655137854167911;0.42767144959829384;1.1627567986310785;0.6325460269364376;3.2238988562871036;2.7738797330493083
Baseline;31.2;1.355816306511933;0.42612574098655553;1.1571359595833348;0.6337741913883717;3.221330495027395;2.7736456209303366
Baseline;31.3;1.347035703804079;0.4247232114524646;1.1521896382430414;0.635063918996063;3.2191321395121415;2.773346804386339
Baseline;31.4;1.339109073340226;0.42345681255678436;1.1478717710400161;0.6364060264426588;3.217277629105036;2.772987105115325
Baseline;31.5;1.331883427433163;0.4223092060682978;1.1440877907778795;0.637798023216714;3.2157159086871854;2.7725734201573102
Baseline;31.6;1.3252296355560285;0.42124857579723685;1.1407293137890262;0.6392129467662357;3.214381550500626;2.7720998443454956
Baseline;31.7;1.3189786155827807;0.42023697289116146;1.1376623924675187;0.640623756774608;3.213195783805591;2.771561407118786
Baseline;31.8;1.3130772318374033;0.41928140617598153;1.134868357788159;0.6420415882673609;3.2121523610588776;2.770970529012313
Baseline;31.9;1.3075032756521576;0.4183913860813755;1.1323464673739876;0.6434763048673338;3.211253166958742;2.770336788888544
Baseline;32.0;1.3021511209384942;0.4175723141417329;1.130051186812267;0.6449447557622063;3.210480947665406;2.7696792239590557
Baseline;32.1;1.2969193799235628;0.416830662470308;1.1279412772688655;0.6464656886563809;3.2098209706976313;2.7690169741266333
Baseline;32.2;1.2916985820175233;0.41612087906139017;1.1259039109538733;0.6479971933393207;3.209196270161801;2.7683283939648664
Baseline;32.3;1.2863635876520672;0.41538288251322264;1.1237973880970848;0.6494798998067264;3.208508985637926;2.767583060902214
Baseline;32.4;1.280858730290067;0.41458210806352724;1.1215504966976653;0.6508809998118741;3.2077061914968024;2.766760395211536
Baseline;32.5;1.2751281776471304;0.4136783325789093;1.1190851950895855;0.6521619349229768;3.2067287990764983;2.7658352432771895
Baseline;32.6;1.2690635051702346;0.41264405908696133;1.1163007065601152;0.6532916285876418;3.2055160136053047;2.7648034479716737
Baseline;32.7;1.262578346529291;0.41146911590253143;1.1131269042110095;0.6542551131760934;3.204030560034729;2.7636724593132937
Baseline;32.8;1.2555254914122607;0.4101027614376145;1.109420236888372;0.6550050773441196;3.2021807174387407;2.762423910673734
Baseline;32.9;1.2477853031756085;0.4085072088361219;1.1050627635527146;0.6555025069778653;3.1998932969433644;2.7610471511680306
Baseline;33.0;1.2394132299747769;0.40670839232075107;1.1001098081727276;0.6557714508568262;3.197206404162693;2.7595571852168623
Baseline;33.1;1.2304901739327772;0.40473557366322144;1.0946417093778518;0.6558462816179027;3.194171596571855;2.757966636340412
Baseline;33.2;1.2211984339654318;0.40267461668095805;1.0888295732482778;0.6557858746142786;3.190910607343832;2.756326265660155
Baseline;33.3;1.211744890537088;0.40062059460795574;1.0828692390090797;0.6556584174137576;3.187561212952698;2.7546906846794705
Baseline;33.4;1.2021045304870386;0.3985549932587267;1.0767399515868012;0.6554672329230309;3.1841064658207205;2.7530472492443483
Baseline;33.5;1.1922474019880278;0.3964580090771026;1.0704119600337387;0.6552102683693217;3.180525068762381;2.7513842514147857
Baseline;33.6;1.1821494169751512;0.39430708787569113;1.0638708542314532;0.654896126900617;3.1768002298360623;2.749682924285586
Baseline;33.7;1.1717799655823615;0.39207600799095044;1.0570952897832786;0.6545314247847189;3.172910759619006;2.747922607255709
Baseline;33.8;1.1614088395241868;0.3898911720884186;1.0503206955112647;0.654184780423269;3.1690293903930877;2.7461816851046557
Baseline;33.9;1.1513933728630397;0.3879231792047877;1.0438609166674677;0.6539451917093508;3.1653859518165053;2.7445658448315022
Baseline;34.0;1.1419449033695566;0.38627195742475084;1.0378949678299874;0.6538656238568317;3.162117081416345;2.743140706341168
Baseline;34.1;1.133307614500005;0.3850534583515284;1.0326289915235547;0.6540047183474709;3.159379708795523;2.741982060585139
Baseline;34.2;1.1256777037540644;0.38435940993635587;1.0282451560027095;0.654420337394714;3.1573016847098927;2.7411431598101226
Baseline;34.3;1.1191594850591136;0.3842372426437217;1.0248476092845014;0.6551518032726653;3.155953484346167;2.740649728326921
Baseline;34.4;1.1140689936835848;0.3848330545943739;1.0227181605350122;0.6562780001176245;3.155534177578418;2.7405868925007537
Baseline;34.5;1.1106625438841782;0.3862658285039231;1.0220885506679789;0.6578648311299613;3.1562056440791677;2.7410228927714133
Baseline;34.6;1.1088298954870028;0.3884812999769558;1.0228587083142013;0.6598956882526998;3.157902872226243;2.7419298147397635
Baseline;34.7;1.1084269335226677;0.3914065352372553;1.0248900055156964;0.6623407197464619;3.160536361955395;2.743270211084436
Baseline;34.8;1.1090703983433707;0.39486518210467025;1.0278556550971043;0.6651259775578051;3.1638727882373665;2.744940562501471
Baseline;34.9;1.1103231583764535;0.3986552516931079;1.0313804831095688;0.6681656763096795;3.167645753063532;2.746823110416292
Baseline;35.0;1.112290309519694;0.40281384306075907;1.0355342288837521;0.6714696770686039;3.171907857742431;2.7489399210961727
Baseline;35.1;1.1151009528422122;0.40738988449158153;1.0404097162189752;0.6750495786543995;3.176723388158668;2.7513169529272323
Baseline;35.2;1.1188443639421815;0.41241119832786666;1.0460583654608486;0.6789172487710111;3.1821413131813827;2.753976920855944
Baseline;35.3;1.1236329054749428;0.41791514782250605;1.0525497048284516;0.6830849733575182;3.1882210950903733;2.7569463518878754
Baseline;35.4;1.1289462967035;0.42366754803396933;1.0594516444097692;0.6874407941708469;3.194637357326614;2.7600773901357814
Baseline;35.5;1.1340594096345047;0.4293461576704418;1.0661694408151128;0.6918409991179644;3.200948093977342;2.7631711903630034
Baseline;35.6;1.138609697149847;0.43478413747379996;1.072398553534076;0.6961862583691394;3.206906713124811;2.766110389617789
Baseline;35.7;1.1421688818836238;0.43978627069918375;1.0777823528034824;0.7003628098121135;3.212225602501899;2.7687587329513432
Baseline;35.8;1.1442962793342506;0.4441539057592756;1.0819571570564754;0.7043054799691193;3.2166566491106536;2.7710086935673477
Baseline;35.9;1.1447377917224744;0.4477686216920933;1.0847092212392901;0.7079863729381719;3.2200655651055685;2.772803646681826
Baseline;36.0;1.1428177375071815;0.45032948197197165;1.0854844664412182;0.7112883588588179;3.222057954030456;2.7739700547669734
Baseline;36.1;1.1379661276404338;0.451581956136188;1.0838166582285105;0.7141216327728266;3.2223093600123205;2.774366327035553
Baseline;36.2;1.1305037284743324;0.45165208195845796;1.079950830073095;0.7165060194375412;3.220974661197679;2.774050337556953
Baseline;36.3;1.120883436662492;0.4507208283353359;1.0742345175551797;0.7184580475838844;3.2182629836335277;2.7730984788875714
Baseline;36.4;1.1098957220390417;0.44912185303986973;1.0673050040494108;0.7201276811184494;3.2146468833991024;2.771715222748946
Baseline;36.5;1.098460289045594;0.44724408734422383;1.0599030148388318;0.7216816044523808;3.2106694341412068;2.770134642331257
Baseline;36.6;1.0865114970261205;0.4450444720476394;1.0519576232985859;0.7230380263372425;3.2062325296977505;2.768298529210501
Baseline;36.7;1.0738879568076758;0.44244084706520237;1.0433262620146495;0.7241170331157027;3.201199418611232;2.7661352433097184
Baseline;36.8;1.060640650312954;0.4394370904448168;1.0340236903493638;0.7248239897152153;3.195510347339419;2.763597498295809
Baseline;36.9;1.046765491197588;0.43601391096901665;1.0240218089661486;0.7250566555231375;3.189075955296036;2.7606255836068048
Baseline;37.0;1.0331386273961813;0.4325526028813398;1.0140542596972368;0.7250685223540048;3.18250039345224;2.757497139680023
Baseline;37.1;1.0209761809322782;0.4295853513959855;1.0051388573836881;0.7252164512018764;3.176624596944455;2.7546007409163025
Baseline;37.2;1.0107962753446698;0.42734084906492065;0.9977251654560266;0.7256971841579709;3.171851686883217;2.752128019011823
Baseline;37.3;1.0031990811832099;0.42608633685616404;0.992336431951875;0.7267479951001228;3.168656477103715;2.750306619320382
Baseline;37.4;0.9990860849716299;0.42620558988876756;0.9897028853821306;0.7285521770817596;3.1675892204474962;2.749378674255011
Baseline;37.5;0.9990823170827765;0.4279579174794632;0.9903182042216692;0.731192790013985;3.1689928975693293;2.7494873484325364
Baseline;37.6;1.0044246238506416;0.4318813346697832;0.9952060718875915;0.7349881714482649;3.1736828751043396;2.7510039721371458
Baseline;37.7;1.0162004581329338;0.4384463258708706;1.0052608231033968;0.7402007083193052;3.182360523226924;2.754245545942341
Baseline;37.8;1.0338048142194296;0.4473849372279366;1.0199928066254031;0.7466888679218098;3.194650980001259;2.759042214926559
Baseline;37.9;1.0562941653166096;0.45828773410935675;1.0386509855853898;0.754273679409116;3.210004957400894;2.765152345408252
Baseline;38.0;1.0824321157053642;0.4705974987544037;1.060190071811256;0.762554517337616;3.227543846102267;2.772162480781059
Baseline;38.1;1.110738845445101;0.4836510568261785;1.0833656509176244;0.7710719949542817;3.24623366077207;2.77958897327367
Baseline;38.2;1.1410929904492662;0.49741189018385334;1.1081319118665496;0.7799330590530644;3.2661327710436465;2.7874806909767935
Baseline;38.3;1.1735880511223975;0.5119369099652609;1.1346157728765096;0.7892886683458107;3.2874291604334243;2.795944804741909
Baseline;38.4;1.207791133333055;0.5270578917724222;1.1625277855200107;0.799200777281678;3.31001077429572;2.804957260397413
Baseline;38.5;1.2433573807503278;0.5426475442387195;1.1916553160428371;0.8097657904897391;3.3338341213630445;2.8145277090980096
Baseline;38.6;1.2791603468845283;0.5581868886164445;1.2210070531892203;0.8205146324478587;3.3580001833967694;2.8242222851975196
Baseline;38.7;1.3136676018702227;0.5729641308593711;1.2492177714047719;0.8307664414828624;3.381243042490671;2.833423221097399
Baseline;38.8;1.3463386973087585;0.5867275582120586;1.2758001581400489;0.8402602371107353;3.403100532243233;2.841906895660836
Baseline;38.9;1.376576329278203;0.5991959210455207;1.3002057741129622;0.848682193649462;3.423036933291721;2.849411037363682
Baseline;39.0;1.4029986387626838;0.6097443558314186;1.3212518529898238;0.8555457561637052;3.4400314712130893;2.8554508146810287
Baseline;39.1;1.4245102618093224;0.6178871171672426;1.3380272880379325;0.8605334747879754;3.453340682918432;2.859682006102224
Baseline;39.2;1.4393918473529315;0.6228374345310366;1.3490289950607535;0.8629606786873918;3.4616171325332887;2.861455979044008
Baseline;39.3;1.44608209977413;0.6238837673557489;1.3529001420749456;0.8622255192357686;3.463656352925522;2.8601951582970795
Baseline;39.4;1.4453963702979058;0.621418251671769;1.3503931112634042;0.8587454468158864;3.4601926598070065;2.856273232306844
Baseline;39.5;1.438728095424131;0.6160975773889641;1.342758177011956;0.8531476958188833;3.452395301235427;2.850275007307859
Baseline;39.6;1.4275178215641233;0.6086118539059218;1.3313326153481846;0.8461926639003412;3.4415792570842054;2.8428625498916986
Baseline;39.7;1.4135435875183573;0.599808363061638;1.3177534108523803;0.8387862291704113;3.4293351855019623;2.834833290284835
Baseline;39.8;1.397241241476296;0.5898922919794485;1.3023908288945192;0.8310706547557114;3.4159787915914075;2.8263496046143697
Baseline;39.9;1.37872653150606;0.5789196370630068;1.2853298211565702;0.8230475228059806;3.4015608776024147;2.8174431144708647
Baseline;40.0;1.3589403368830473;0.5673297645131914;1.267381837790401;0.8150588427422525;3.386792445822909;2.8084694312470155
Baseline;40.1;1.3387282387598995;0.5555162604349739;1.2492677156421728;0.8073908824862244;3.3722920690411664;2.799737836852878
Baseline;40.2;1.3191495526595025;0.5439947034600854;1.2319988153183221;0.8006699398975297;3.3590889846044307;2.7917684640259663
Baseline;40.3;1.3015672743029896;0.5334303201776409;1.2168893915300067;0.7957352813662295;3.348538814587174;2.785245035315123
Baseline;40.4;1.2863638709730552;0.524017297431481;1.204324117366692;0.792859222936201;3.3410566089983016;2.780382978952801
Baseline;40.5;1.2739090954113435;0.5159456517306058;1.1946843643123453;0.7923283294505143;3.337065174723662;2.777401592816082
Baseline;40.6;1.2657246788983585;0.5099490947721703;1.1893881541040567;0.7949603397735858;3.337963324716453;2.7770026961587932
Baseline;40.7;1.2631608555575111;0.506676124650915;1.1896744751568589;0.8014340949242111;3.344947286260733;2.7797863314862896
Baseline;40.8;1.2679418753174279;0.5069585339974214;1.1971629239695334;0.8127073394371038;3.3596298990851743;2.78655845028066
Baseline;40.9;1.2816735728410658;0.5115716410906996;1.2133571674904742;0.8296612555288378;3.383502341176457;2.7980643588772107
Baseline;41.0;1.3036377656377596;0.5201749975407441;1.2375596944066434;0.8518395375186012;3.4158337622378543;2.813945656862156
Baseline;41.1;1.332461405385871;0.5321135037888158;1.2684583184520637;0.8784218803844368;3.4552781574728657;2.8335363553900663
Baseline;41.2;1.3669973784306428;0.5468437292775166;1.3049363938535414;0.9086771607860227;3.500667699952279;2.8562622676023217
Baseline;41.3;1.405770829517758;0.5636646006808617;1.3455654945778255;0.9416824644348161;3.550517876221722;2.881391439350428
Baseline;41.4;1.4481746737963404;0.5822864923130746;1.3897621525135069;0.9770648166905982;3.6042167614060023;2.9086151222458714
Baseline;41.5;1.4939109616525004;0.6025692405812224;1.4372356194848184;1.0146296714497964;3.6614473570194264;2.9377697843730655
Baseline;41.6;1.541836572301401;0.6239638859616123;1.4868964591510663;1.0536989702636363;3.7210890133276626;2.9682940916818046
Baseline;41.7;1.5908697784458399;0.6459507481405282;1.5377137173262811;1.0936307609541318;3.7820792462909374;2.999653572258457
Baseline;41.8;1.6403261094164199;0.6682144583856235;1.589003560331955;1.1339518951137872;3.843680988632334;3.0314849214435506
Baseline;41.9;1.6894219536684139;0.6903949200679902;1.6399792778562867;1.1741133453689256;3.905046826942562;3.0633748414077355
Baseline;42.0;1.7379956319405903;0.7124261032972266;1.6904530959766824;1.2139440245474624;3.965935527094957;3.0951976527659477
Baseline;42.1;1.785950680322701;0.7342749694257718;1.7402963144204184;1.253305168336424;4.026163030260117;3.126856237510304
Baseline;42.2;1.8321245597158535;0.7553901177327225;1.788374116940581;1.2914505856367002;4.08454200384934;3.1577681537002205
Baseline;42.3;1.8753654267793678;0.7752205935403991;1.833567255314696;1.327650500788332;4.139904091128552;3.1873568196351463
Baseline;42.4;1.9144579498832686;0.7931961528871385;1.874686541770961;1.3611217765046582;4.19100508126291;3.2150131052002013
Baseline;42.5;1.9482403465863216;0.8087692369603197;1.9105955831485923;1.3911155097111925;4.236655816972698;3.240154683691804
Baseline;42.6;1.9770321344789057;0.8220896595594329;1.9415797066771336;1.4177701631215833;4.277098574636094;3.262877120015986
Baseline;42.7;2.0016164814341764;0.8335307194721802;1.9683680624462694;1.441501728610795;4.313022581896711;3.283487708568888
Baseline;42.8;2.0224978511961282;0.8433169829338745;1.9914297339558873;1.4625682958659665;4.344864321939362;3.3021797339370242
Baseline;42.9;2.040384593366162;0.8517685040015017;2.0114299793266364;1.481351219073379;4.373258354920874;3.319239846678703
Baseline;43.0;2.055631013886414;0.8590674792432429;2.0286888530173854;1.498020670934952;4.39848871618341;3.3347834688041265
Baseline;43.1;2.0683998468987657;0.8653055286177498;2.0433446413102;1.5126368392994824;4.42066129016674;3.348844552526086
Baseline;43.2;2.0794033958566738;0.8708344047920509;2.056058098177779;1.5255791543203996;4.440397401287282;3.361692950562313
Baseline;43.3;2.0893265930831637;0.8759949589582003;2.067465445229561;1.537215628133017;4.458297550426616;3.3735900905185763
Baseline;43.4;2.098360380267658;0.8808540205166775;2.077745331086059;1.5476371577497812;4.474528167569907;3.384615098881683
Baseline;43.5;2.106679453590605;0.8854561943938748;2.0870629386712194;1.5569237195182373;4.489243766188326;3.3948440386035936
Baseline;43.6;2.114184913825196;0.8897428000284018;2.095325949511433;1.5650136628954883;4.502353341952143;3.4042398569257872
Baseline;43.7;2.1207179219925285;0.8936224955920071;2.1023879271563057;1.571815574781024;4.513717509902514;3.412746087315056
Baseline;43.8;2.1267794569343232;0.8973052333484066;2.1087151417706407;1.5775849120105847;4.523770265839504;3.420550596297581
Baseline;43.9;2.132918440770081;0.9010343197630357;2.1148170580815595;1.5826046356971668;4.532984258664732;3.427853264464667
Baseline;44.0;2.1396328462685856;0.9050049256008768;2.1211666732638763;1.5871454880712048;4.541818147843782;3.434864641840095
Baseline;44.1;2.147406191829341;0.9094087493069676;2.1282209615119863;1.5914669296007182;4.550709498459947;3.4417795170377574
Baseline;44.2;2.156040439665193;0.9141810010414702;2.1357938389388353;1.5954710208251575;4.559477886339358;3.4485060498993816
Baseline;44.3;2.1651139976098763;0.9191647231672153;2.1434957986295835;1.5989567438075256;4.567762240199004;3.4548779167073485
Baseline;44.4;2.1743770718033506;0.9242842152573356;2.151075182661258;1.601767603114801;4.57528145519794;3.460725187887863
Baseline;44.5;2.1834913446989646;0.9294312442913579;2.1581975422069464;1.6037028852803852;4.5816765969543765;3.4658423891074146
Baseline;44.6;2.1922489593915264;0.9345161809588394;2.1646936847480713;1.6047132812783786;4.5868351367968945;3.4701968610089784
Baseline;44.7;2.2005362603056327;0.9394811837018198;2.170482553318349;1.6047973132567166;4.590725977761211;3.4737886845353954
Baseline;44.8;2.207974195430354;0.9441745549391198;2.1752397214600387;1.603829158865497;4.593104076710204;3.4765388465561893
Baseline;44.9;2.2142039389466888;0.9484486221695372;2.178662948049034;1.6017003216341474;4.593751133998089;3.4783820644086583
Baseline;45.0;2.2191538044882035;0.9522861694595406;2.180655049066396;1.5983204505969737;4.5924996120852555;3.4791661099250244
Baseline;45.1;2.2227702091920483;0.9556896245646804;2.1811162837595583;1.593569445905537;4.589139304442567;3.478692922700209
Baseline;45.2;2.2251482940115563;0.9586901871605775;2.1801210984577555;1.5874753579039576;4.583692411758621;3.476905021408962
Baseline;45.3;2.2264230345146903;0.9613347881303325;2.1777750447604642;1.5800741615285672;4.576196612855735;3.4737405050378185
Baseline;45.4;2.2263586133304996;0.9635635436876271;2.1738359075289413;1.5712109097156746;4.566379448530732;3.4690391109333705
Baseline;45.5;2.2246935193282766;0.965302966039479;2.168055945348571;1.5607561297461117;4.554005108590387;3.4626884313818853
Baseline;45.6;2.2212188772494432;0.9665025768357829;2.1601974038381444;1.5485252368551263;4.538759196131263;3.4544734468387848
Baseline;45.7;2.2157308511741975;0.9671164362120948;2.150035917649878;1.5343546076446861;4.520362378921623;3.4442148709286853
Baseline;45.8;2.2084017283052892;0.9671801206592816;2.137786260608152;1.5184545752576017;4.499118433709922;3.432084314630808
Baseline;45.9;2.199544046400458;0.966758150142379;2.123808830327987;1.5011363543049256;4.47549120906457;3.4183279027721034
Baseline;46.0;2.189323147151251;0.9659018711026954;2.1083479294810186;1.4826829265860137;4.449907976354411;3.4032625567837242
Baseline;46.1;2.1779562557743004;0.9646738176461387;2.091709170919982;1.4634304060249734;4.422879036445225;3.387256493742805
Baseline;46.2;2.1656817376306314;0.963115581279057;2.074134384844066;1.4435469060524109;4.394655336190451;3.3703937928422576
Baseline;46.3;2.1526832653244234;0.9612624543566515;2.055801405760687;1.4231453676129395;4.365408987454452;3.352722063084197
Baseline;46.4;2.1393116124613494;0.9591732821104983;2.0370744893024764;1.4024877795383035;4.3355281202101486;3.3343824532134914
Baseline;46.5;2.125912390541945;0.9569061173648787;2.018306378755149;1.3818186705586646;4.305378561340836;3.315501288387155
Baseline;46.6;2.112518434777604;0.9545160536136521;1.9996074048455874;1.3613315895485876;4.27527869396824;3.296409792098628
Baseline;46.7;2.099109482411528;0.9520616491563212;1.9810651543387845;1.3412514587647641;4.245595003398572;3.2775273814025785
Baseline;46.8;2.085652834409009;0.9495798937947004;1.9626893428924967;1.321652262365642;4.216478694263775;3.259072743216754
Baseline;46.9;2.0720763384909366;0.9471074771464147;1.944455209851868;1.3025927512658408;4.188063901154974;3.241281882894952
Baseline;47.0;2.058534698933671;0.9447016247372835;1.92660860188509;1.284376303632789;4.160801296188236;3.2245007476713905
Baseline;47.1;2.0452402660614633;0.9424126525004262;1.909431821414139;1.2672977843751063;4.135119711705593;3.2090015014304574
Baseline;47.2;2.03227400667659;0.9403093213866835;1.8931164037939965;1.251653022597361;4.111479457662461;3.195217746737651
Baseline;47.3;2.0197342187839347;0.9384515738058647;1.8778621120716448;1.237729746731631;4.090317950587434;3.183535590098902
Baseline;47.4;2.007690228034556;0.9368380327530863;1.8636856377367206;1.2254602636108345;4.071560596223271;3.1738532609175016
Baseline;47.5;1.9961499836996488;0.9354569577198619;1.8505018031144518;1.2146469616584903;4.054963248520774;3.165966334352504
Baseline;47.6;1.9852789013921566;0.934267895549775;1.8383915056914644;1.2052187380014243;4.0403869747917485;3.159573542932031
Baseline;47.7;1.9752383582685349;0.9332211254875284;1.827409208031824;1.1970526671564374;4.027617953094476;3.1543019720123855
Baseline;47.8;1.965939788909714;0.9323390627358563;1.817425688419556;1.1899990351116152;4.016516023856995;3.150165856711116
Baseline;47.9;1.957294021163202;0.9316469547277109;1.8083329443168665;1.1839556864305099;4.006999658848994;3.147228982991581
Baseline;48.0;1.949181273717759;0.93116140506491;1.7999342762233885;1.1786713330641971;3.998803875241747;3.145425824035618
Baseline;48.1;1.9414619650248737;0.930901313109544;1.7920178559268178;1.1738914134999305;3.991661421322238;3.1447077257353313
Baseline;48.2;1.934349559214196;0.9308009014367986;1.7847475632901801;1.1696554742458636;3.985519970483683;3.1447491437486104
Baseline;48.3;1.9281717217272618;0.9307663917796631;1.7783922608270615;1.1660610795918647;3.980356195926201;3.1451056497138588
Baseline;48.4;1.9230604913095046;0.9307541751052542;1.7730703881799794;1.1631709940219297;3.976169334042533;3.145591342326023
Baseline;48.5;1.9191780900699138;0.930710645488781;1.7689352196990216;1.1610791526199185;3.972978722812754;3.145991469945579
Baseline;48.6;1.9167223175501737;0.9305793995428875;1.7660978773645812;1.1597292992750514;3.9706472601556557;3.1459553669596354
Baseline;48.7;1.915799643636194;0.9303299224461217;1.7645782526298968;1.1590015590622507;3.96900250443204;3.1452270523540435
Baseline;48.8;1.916689634947434;0.9298681344992232;1.7645692955247005;1.158897520366347;3.9679138289723888;3.143319212455144
Baseline;48.9;1.9196378002521808;0.9291151837088449;1.7662320438585377;1.1593987799080399;3.9672522774163133;3.139803117848676
Baseline;49.0;1.9244294899930185;0.928120904699619;1.7693701999086757;1.1603968988140227;3.96694787547405;3.1348844477688123
Baseline;49.1;1.9307457812665056;0.9269510797854563;1.7737194530417284;1.16179312827159;3.966951487209503;3.128885989851676
Baseline;49.2;1.9382480165129037;0.9257264532074752;1.7789635014548688;1.1633964233754606;3.967218078647557;3.122276636828592
Baseline;49.3;1.9465292825318405;0.9245858599006942;1.7847319332224636;1.1649998449543721;3.9677069731374317;3.1156139032812207
Baseline;49.4;1.9554558646559776;0.9235097623674342;1.7909269625304196;1.166593740819283;3.968341156874051;3.108881508546922
Baseline;49.5;1.9649628970493849;0.922463303422437;1.7975065451387948;1.1681857740352548;3.9690479681596322;3.1019862782454255
Baseline;49.6;1.97481066442107;0.921443465225062;1.8042925901776918;1.169752134164657;3.9697442533293446;3.0950134006355783
Baseline;49.7;1.98478036006364;0.9204367180525548;1.8111283004002798;1.1712844068833679;3.9703486643641126;3.08801083678759
Baseline;49.8;1.9946360425351788;0.9195737194533802;1.8177722259718756;1.172592896203132;3.97086308741964;3.081437543364884
Baseline;49.9;2.004081820334437;0.9190418139090033;1.8239095735014637;1.1734119506657255;3.9713039443399953;3.0759352607001778
Baseline;50.0;2.013018581414097;0.9189090061874126;1.8294271708628456;1.173628824886582;3.9716679708087828;3.071723391611167
Baseline;50.1;2.021355713911535;0.9192558229990615;1.8342134303669253;1.1731188478933197;3.9719661270302886;3.0690552592835396
Baseline;50.2;2.0287344231239146;0.9202218831374909;1.8379221818110683;1.171653935296769;3.972144441218111;3.068450780755863
Baseline;50.3;2.0348176411294094;0.9219014948215358;1.8402414918607821;1.169054345325426;3.9721173918979478;3.070286675395897
Baseline;50.4;2.039234784193014;0.9244853836407305;1.8408050489610686;1.1650573302053324;3.9718933184790632;3.0752535131006766
Baseline;50.5;2.04162722020569;0.9281414999582536;1.8392606621621468;1.1594164217752088;3.971455218275394;3.083962921492959
Baseline;50.6;2.0420847012265533;0.932748999480558;1.835715524880519;1.1522364438994055;3.970711814277707;3.096004245033235
Baseline;50.7;2.0408481359544153;0.9381243608402583;1.8304274445312183;1.1437250149826417;3.9695999318448356;3.110740268420198
Baseline;50.8;2.0380301985305636;0.9440548208975867;1.8235333501980735;1.134033302673525;3.967896298643513;3.127438374898853
Baseline;50.9;2.033808028886691;0.9502861644645755;1.8152367231362279;1.1233643783214173;3.9653684999887417;3.145220046150305
Baseline;51.0;2.028334839594665;0.9567650606303708;1.8057015694758052;1.1118351122254344;3.962092580763115;3.1639064782355377
Baseline;51.1;2.0217021325519484;0.9634775758252383;1.795027207111879;1.0995113439278805;3.958149488139325;3.1834550831890684
Baseline;51.2;2.0141859761436747;0.9703121433885533;1.783502294421539;1.086601048389178;3.9536326494539367;3.203481740112573
Baseline;51.3;2.0060613293239324;0.9771715173228745;1.7714133931525362;1.0733068549382896;3.948657624679564;3.2236519104730927
Baseline;51.4;1.9973076402838545;0.9838824332389642;1.7587567326226683;1.0596781854570834;3.9429234576094947;3.243359306572711
Baseline;51.5;1.98785692996106;0.9902180179892506;1.745484477037154;1.0457541850943946;3.9359937572252752;3.2618095413339776
Baseline;51.6;1.9776372946519238;0.9960992028321245;1.7315385019202383;1.031527872765193;3.9276808233995606;3.278729133400395
Baseline;51.7;1.9665460357715592;1.0014447567730143;1.7168288577611177;1.0169729351658292;3.9177598050360105;3.2938340689971044
Baseline;51.8;1.954685448616151;1.006026420743761;1.701478455949772;1.0022363891548212;3.9059643319383675;3.30633209388792
Baseline;51.9;1.9422175745535162;1.0096495292362793;1.685669741971335;0.9874947362860658;3.892148445778819;3.3155536306311615
Baseline;52.0;1.929201014145855;1.012052450157337;1.6694762406887351;0.9728672767356743;3.875924635764065;3.3205731351108416
Baseline;52.1;1.9157148797210697;1.0129932683616962;1.6529918225387101;0.9584829910539563;3.8569630411954527;3.320537496619543
Baseline;52.2;1.9018297653296283;1.0125774494949935;1.636295139736566;0.9443761728533193;3.8355398573780137;3.315832647806002
Baseline;52.3;1.8875842391221784;1.0110074497827517;1.6194247642075688;0.9305264600384033;3.812052722741252;3.3071768427307657
Baseline;52.4;1.873132944039722;1.0084591271920305;1.6025464772009075;0.9170157996755641;3.787007110847549;3.2952235635987313
Baseline;52.5;1.8586328526758145;1.0051579379925792;1.5858273222202284;0.903914847199184;3.7609983796967796;3.280803420952415
Baseline;52.6;1.8440921236951295;1.001196453458972;1.569258102383417;0.8911834899085056;3.7341446457559044;3.264203380599924
Baseline;52.7;1.8295281569686708;0.9966228426005213;1.5528357542657103;0.8787950875949475;3.7064866044303146;3.2455463403201836
Baseline;52.8;1.8149185658997604;0.9916060691304702;1.5365239211343527;0.8666747802817012;3.6782562602921196;3.225399057227931
Baseline;52.9;1.8002391038072245;0.9863078469075646;1.5202789150170757;0.8547408395289064;3.649656484882958;3.204292143343335
Baseline;53.0;1.7857141738886808;0.9808423213186925;1.504329615126192;0.8431343719029867;3.6211470485162156;3.18265618061021
Baseline;53.1;1.7716306004673665;0.9753382020770482;1.488982962539981;0.8320591199946064;3.5933253822365003;3.1610108171185005
Baseline;53.2;1.7582066896990751;0.9698409670150525;1.4744367623555021;0.8216332074463777;3.566454050414367;3.1394914600844857
Baseline;53.3;1.745684996584231;0.9643880024026741;1.4609138325103705;0.8119955498361131;3.5408115349801035;3.118209640075572
Baseline;53.4;1.7342168429010547;0.9591508559098534;1.448596649422356;0.8032563484224271;3.5169489632568443;3.097848361879269
Baseline;53.5;1.7238930001769992;0.9542978503214874;1.437600179660227;0.7954725851896312;3.4953242617166023;3.079059564334223
Baseline;53.6;1.7149239753874088;0.9500109152786873;1.4281688351487718;0.7888009939755385;3.4765876673326837;3.0625803792652615
Baseline;53.7;1.7074840317860742;0.9464607820095203;1.4205135215615625;0.7833776452679606;3.461335080895121;3.04910978454485
Baseline;53.8;1.7016005016338775;0.9436243098915424;1.4145977200517938;0.7791371554651088;3.4493753967168637;3.038436994211743
Baseline;53.9;1.6972909181376137;0.9414202950321551;1.4103406428362097;0.775974686290982;3.4403140852043474;3.030077942972934
Baseline;54.0;1.6944223383752703;0.9397803086202972;1.4075674923893517;0.7737450993464554;3.4337501029873323;3.0236838371487957
Baseline;54.1;1.6928374659977221;0.9386092554960541;1.4060649149697682;0.7722720899306212;3.4291690541140634;3.018780329404744
Baseline;54.2;1.6926324514493452;0.9378830600835162;1.4058555298238318;0.771534897819147;3.4264516980368382;3.0151596903424247
Baseline;54.3;1.6938932590280587;0.9375955546680244;1.4069775885410314;0.7715372315648361;3.4255715177399386;3.0127312917684126
Baseline;54.4;1.6967382358186152;0.9376884962340117;1.4094313907407754;0.7722212650194278;3.4262527568220627;3.011078369010413
Baseline;54.5;1.701281488787811;0.9381042557770698;1.4132193127316457;0.7735359225953244;3.4282371311691575;3.009802219597799
Baseline;54.6;1.7072410888443388;0.9387786077642524;1.4181059600691857;0.7753470003003748;3.4312040011881226;3.0087359195862584
Baseline;54.7;1.7142382689725704;0.9396381386944892;1.4237818128994757;0.7774776414741824;3.4347547387444326;3.0077051802275756
Baseline;54.8;1.7220000302539997;0.9406456526836333;1.430053355179444;0.7798454101670584;3.438734493804761;3.006722021894335
Baseline;54.9;1.7302019753869233;0.9417615034130344;1.4366980311632487;0.7823608133885624;3.4429849452220473;3.005828709505276
Baseline;55.0;1.7387011000307613;0.9429239414028441;1.443529124559845;0.7848638776838079;3.4470939551891755;3.004691818113498
Baseline;55.1;1.747461069392238;0.9440840077126023;1.4504287142658043;0.7872213299788671;3.450699919319927;3.0029654166923843
Baseline;55.2;1.7561723149665935;0.9451482141270926;1.4571028350587456;0.7892377948213021;3.45330083815407;3.0003021048573437
Baseline;55.3;1.7645970979972914;0.9460397240652707;1.4633048039245624;0.7907339458558491;3.454441663139912;2.996373282664564
Baseline;55.4;1.7727686687167852;0.9467776478830867;1.4690697699326885;0.7917488053070239;3.4542507678476815;2.9913033206417348
Baseline;55.5;1.7806857683529342;0.9473865816008482;1.4744492931305242;0.7923729119281484;3.452988314656059;2.9853545814050824
Baseline;55.6;1.7887419505588857;0.9479694660557687;1.4797096027848484;0.7927143121891111;3.4509934129767235;2.9787271232589276
Baseline;55.7;1.7973694818666948;0.9486420723374005;1.4851565068848682;0.7929115189232219;3.4486852526818152;2.971681251959202
Baseline;55.8;1.806258667199625;0.9493476925325153;1.4906250099923612;0.7929668495627418;3.446058407076655;2.9643279978118526
Baseline;55.9;1.8150984438676936;0.9500258974095939;1.4959342748416642;0.7928579574222123;3.4430462910629878;2.95672427810476
Baseline;56.0;1.8235363771245403;0.9506183608129346;1.5009205388031335;0.7926240884893341;3.4397341791088962;2.949078513110366
Baseline;56.1;1.8311872551448287;0.9510582915675814;1.5053993388559244;0.7922981813488414;3.4361852051987833;2.941587798130344
Baseline;56.2;1.838704073666423;0.9515047287289136;1.5097672597406806;0.7919763166516445;3.432746209765404;2.934385905495027
Baseline;56.3;1.8470520677407478;0.9521872694632387;1.5146040976777293;0.7917877908702158;3.429887558035448;2.927622635655431
Baseline;56.4;1.8566860905306655;0.9532095051407659;1.520170996518008;0.7917769042812068;3.427785631899649;2.9213269944524
Baseline;56.5;1.8681731533286348;0.9546992617740795;1.5267920310281298;0.7919941760552414;3.426644874902875;2.9155183366611084
Baseline;56.6;1.8819996571407929;0.9567817970372348;1.5347821972220208;0.7925471823953343;3.426825213304701;2.910390642249544
Baseline;56.7;1.898359369073833;0.9595142082395833;1.5442862658395349;0.7935163432643231;3.428576934095595;2.9061229778496678
Baseline;56.8;1.9181109953767352;0.963109532174875;1.555843311904991;0.7950521136488149;3.432415653347247;2.902940975877393
Baseline;56.9;1.9419603148553701;0.9677433857008158;1.5698994814951561;0.7972851390477187;3.43878484207057;2.9010470763324196
Baseline;57.0;1.9693410254104622;0.9732724624809181;1.5861074429031854;0.800139409935352;3.447398011394947;2.900335287119818
Baseline;57.1;1.9995264968777198;0.9795105251160008;1.6040152425747713;0.803501306576722;3.4578390149237377;2.900624338313082
Baseline;57.2;2.0312640340852886;0.9861476386770418;1.622856032694047;0.8072046482829514;3.469501475778479;2.9017115499423634
Baseline;57.3;2.063116347418867;0.9928274920421165;1.6417488230013788;0.8110545324108918;3.481675405518015;2.9033507097126554
Baseline;57.4;2.0951709997371815;0.9995646494231556;1.6607454475984946;0.8150514661067447;3.4943494382332494;2.905497886932289
Baseline;57.5;2.1276727670162847;1.006413300562956;1.6799950891336746;0.819219660659126;3.5075998340696604;2.9081448491469066
Baseline;57.6;2.160524495907733;1.013338699732996;1.6994343008447315;0.8235279592380405;3.521294707585553;2.9111848804789293
Baseline;57.7;2.193730753496121;1.0203315082904245;1.7190622918080622;0.8279579697820942;3.5353491868250453;2.914525684345427
Baseline;57.8;2.2259747250996016;1.027068535329648;1.738073460944495;0.8323379777569144;3.5491507698383042;2.9179763080785976
Baseline;57.9;2.2553994044257326;1.0330951778731166;1.7553327004205777;0.836431407753075;3.561853704449935;2.921285535179871
Baseline;58.0;2.281298065748918;1.0382421233366763;1.7704118925282266;0.8401494908848344;3.5731474720706293;2.9243701615535853
Baseline;58.1;2.3028511043806086;1.0423134494056647;1.7828141088483829;0.8433897361933553;3.582677044117202;2.927138906038512
Baseline;58.2;2.318596297460819;1.0449433499336918;1.7916472495447815;0.8459653084191325;3.5897445930120497;2.9293526357052295
Baseline;58.3;2.3274853436867433;1.0458660842777823;1.7962742254497996;0.8477428655029309;3.5938341086574663;2.9308193075954616
Baseline;58.4;2.3275916066216;1.0446031229273904;1.795515121590153;0.848469226235121;3.5940322048655524;2.9312350394963307
Baseline;58.5;2.317188608733466;1.0407238267547676;1.7883147286331438;0.8479202595813051;3.589520524940026;2.930323739280004
Baseline;58.6;2.2973270699279373;1.0344894960119246;1.7753289281750089;0.8462359956057606;3.5807882747445534;2.9282337736005264
Baseline;58.7;2.269684357074204;1.0263194029117821;1.7575969728212861;0.8436318014613091;3.568616726013105;2.9252091653799663
Baseline;58.8;2.2361058370981715;1.0166633564302616;1.7362711931610164;0.8403682042949354;3.5538775835885774;2.921511407472914
Baseline;58.9;2.198837935087898;1.0060713504375816;1.71275114600303;0.8367584985578915;3.5376312616454513;2.9174634708391123
Baseline;59.0;2.158349590629073;0.9946629220545997;1.687323801048275;0.8328402244119504;3.520072158593047;2.9131098859388933
Baseline;59.1;2.114716454709747;0.9824571620049891;1.6600339497499412;0.8285999530335779;3.501210032565157;2.908431229126924
Baseline;59.2;2.069020067706804;0.9697332236728275;1.6315456486036801;0.8241548059905606;3.4815312189352614;2.903580109486062
Baseline;59.3;2.0222061467211017;0.956735456603675;1.602437518887891;0.8195999284565021;3.461453567433243;2.898682427759038
Baseline;59.4;1.9756501850787087;0.9437843842748981;1.5735782391878654;0.8151501637136258;3.4416419730989123;2.893919499825424
Baseline;59.5;1.9311817811823682;0.9313094648131859;1.5461255191282204;0.8111029547648405;3.4229948990072945;2.889552998138459
Baseline;59.6;1.8892729381733977;0.91940089203983;1.520381888995284;0.8075314491574277;3.405724061993787;2.885591678360643
Baseline;59.7;1.850391431312853;0.9081445237145003;1.4966496322294294;0.8045154816602826;3.3900451681878865;2.8820439900709705
Baseline;59.8;1.8165935607761519;0.8980528755456803;1.4762190123111445;0.8023651470463609;3.3769599206145973;2.879246607558909
Baseline;59.9;1.7896973812012495;0.8895874503687917;1.4602259276557845;0.8013403151526068;3.3673419800922852;2.877498819032744
B;-20.0;-0.030412075330090715;0.0020675553649593947;-0.3115676141263002;-0.047529285772942576;-0.14830628372660115;0.05998943710352256
B;-19.9;-0.02638976481810218;-0.0029225853354097886;-0.3095307178278901;-0.05710551922140139;-0.14605205685407796;0.056901572334469463
B;-19.8;-0.021525108051680064;-0.007652091714651421;-0.30626203280968056;-0.06608326803941789;-0.14315585606305703;0.05425137698148941
B;-19.7;-0.016002590413421558;-0.012181811492353312;-0.3019996434805705;-0.07450385277519067;-0.13955175217138205;0.05202952907824665
B;-19.6;-0.01019090243237386;-0.016572588987090464;-0.2971679768944995;-0.0824404931848477;-0.13560642208550533;0.05009803449815253
B;-19.5;-0.0045061746252983426;-0.02089996401083183;-0.2922506270870784;-0.08998284354236574;-0.1316887377593723;0.04831037204296473
B;-19.4;0.0011311927661346033;-0.025168955538999782;-0.28719052263039657;-0.09710559638044836;-0.12747770644696033;0.046755879691976254
B;-19.3;0.006859631551048295;-0.0293629069057193;-0.2818554507154829;-0.10376254060322232;-0.12264504294373779;0.04553522530749721
B;-19.2;0.012690758604446017;-0.03352034132074788;-0.27627895819820836;-0.10995944211087161;-0.1168342079785667;0.04473317589528181
B;-19.1;0.018681265922182888;-0.03766960573468636;-0.270444543005695;-0.11569069500337426;-0.10963372935910343;0.04445409368301512
B;-19.0;0.024502589467079616;-0.041825242901268656;-0.2646959998231999;-0.12099840732670675;-0.101543872910824;0.044537012796803666
B;-18.9;0.029636332775048402;-0.04602197609030423;-0.25957419269670723;-0.125965113065432;-0.09339644968184402;0.04471489343224411
B;-18.8;0.03398951663073291;-0.05021940216279153;-0.25516256130533677;-0.13057129194009454;-0.0854388528260408;0.04492188276017117
B;-18.7;0.037443578988654025;-0.054371187130121124;-0.2515639797747369;-0.13479875635699345;-0.07800240830593452;0.04506914157739672
B;-18.6;0.039502602815947085;-0.058563929480303534;-0.24933475466773913;-0.1387633941720232;-0.07169277379990291;0.0449384000613402
B;-18.5;0.039780871419665687;-0.06288426539105685;-0.24892842985467212;-0.14256840407857507;-0.06689306972798548;0.04437753747157114
B;-18.4;0.037685973777804804;-0.06740937529902524;-0.25098017408939555;-0.14633839327682474;-0.06443081001135553;0.04310417538199962
B;-18.3;0.03265143393338832;-0.07222406979808715;-0.25610680516755835;-0.1502022092698998;-0.0650791347549351;0.04085020883457213
B;-18.2;0.025119393693589842;-0.07723826396448374;-0.263855237135342;-0.15405039541863985;-0.0682097266502133;0.03782765519598774
B;-18.1;0.015825265177472403;-0.08229045887516984;-0.2734409407439209;-0.1576913569641063;-0.07284604368356895;0.03437676893663433
B;-18.0;0.005263586679934207;-0.08734259967319935;-0.28440286057871234;-0.1610507092753235;-0.07818626980279575;0.03074760684924538
B;-17.9;-0.005928655277838146;-0.09233293164539447;-0.2961294899472513;-0.16402204816788357;-0.08322915944085452;0.02725805743860299
B;-17.8;-0.017330081315716228;-0.09711686875136727;-0.3081240623029551;-0.1664673764795217;-0.08755231680948228;0.024075220442770995
B;-17.7;-0.02870415018618644;-0.1015895936509712;-0.32008719701828525;-0.168300574027906;-0.09099997799098603;0.021273898920074696
B;-17.6;-0.039326776682326425;-0.10553526169598482;-0.3311924373521187;-0.16929839899761823;-0.09274189772969521;0.019165751813809973
B;-17.5;-0.048516039287420654;-0.10874166689504827;-0.3406497757186848;-0.16924685953072727;-0.09203093030001241;0.018036626106724185
B;-17.4;-0.05624801978982319;-0.11131755326722148;-0.3485341474276211;-0.1682414629227389;-0.08869172254397029;0.017905556534231426
B;-17.3;-0.06254622221871031;-0.11343725549318906;-0.35502637687452676;-0.16642979678574976;-0.08248827483570764;0.01879017779308123
B;-17.2;-0.0676485859575422;-0.11523236454533525;-0.36043707408482106;-0.16395873681022666;-0.07371679835059552;0.020561175957507505
B;-17.1;-0.071893966756722;-0.11687571417115383;-0.36520011523938933;-0.16101775781765326;-0.06278429734792823;0.023044101832425223
B;-17.0;-0.07480410932055648;-0.11835658212530342;-0.36890606195085596;-0.1575592766113385;-0.04884402785661024;0.02649355306945189
B;-16.9;-0.07576755908122479;-0.11958685768796862;-0.37095916778926963;-0.15346415981478745;-0.030950685400810585;0.031216223015018585
B;-16.8;-0.07452306558426969;-0.12066482760459185;-0.3712289201307897;-0.14879202017093296;-0.008477067735597643;0.03737083275838371
B;-16.7;-0.07073613476947216;-0.12164896472288422;-0.3694896677213073;-0.14356371859768924;0.019283848042160656;0.04515113093623668
B;-16.6;-0.06450363449746632;-0.12247050762900535;-0.3657318952641795;-0.13776861043396216;0.05188312527997141;0.05444090459720918
B;-16.5;-0.056245632318145056;-0.12309967042293435;-0.36023940545912936;-0.13146782982762795;0.0882817491935377;0.06493711772947952
B;-16.4;-0.045636980830217055;-0.12326881363273179;-0.35248624235750015;-0.12444825860496045;0.12855042030564334;0.07673384150317553
B;-16.3;-0.03240912805787133;-0.12269096596329776;-0.34197158676585815;-0.11649074365450995;0.1726020233287784;0.08988356091888017
B;-16.2;-0.01725529385209512;-0.1215303794534821;-0.32938452394969175;-0.10783103264058913;0.2192325935608217;0.10398181248185878
B;-16.1;-0.0007795363317875115;-0.11996102591874624;-0.3153587850393045;-0.09869769325333055;0.26746717492284944;0.11869000846043232
B;-16.0;0.016094579609006843;-0.11816247717385808;-0.300771088728613;-0.08937077753935152;0.31562082136375125;0.13345593683703783
B;-15.9;0.03239057868023565;-0.11634268310386964;-0.2865698973499171;-0.08015669898762146;0.36196747788194017;0.1477076389720211
B;-15.8;0.048950497878038846;-0.11412493180772909;-0.27174114364001767;-0.07068451514896612;0.4075452334293317;0.16185866899835233
B;-15.7;0.0671308136560107;-0.11093854713763895;-0.2546805437838877;-0.060373039059435474;0.4540884059492498;0.17658337707411542
B;-15.6;0.08754404107068225;-0.10655677282394005;-0.23470960199670188;-0.04898607426918167;0.5025004887876108;0.19221527722985554
B;-15.5;0.11099550720065565;-0.10069598347992059;-0.21094928373724997;-0.036217840674367396;0.5539987211554553;0.20919736834998215
B;-15.4;0.13805036066922227;-0.0930083535316788;-0.18259958968257806;-0.021762882870880462;0.6089794026012036;0.2277431471475566
B;-15.3;0.1688094827416542;-0.08330794181292056;-0.14937194390934394;-0.005497486183181133;0.6671540342397257;0.24781756448285996
B;-15.2;0.20437278203186438;-0.07106434259205785;-0.10989095341334121;0.01309601089663781;0.7297537001973247;0.2699338953466115
B;-15.1;0.24564470207696942;-0.05581914370263452;-0.0629953318405505;0.034455195992618926;0.797708335618946;0.29449587940833366
B;-15.0;0.29167567946262096;-0.03795337219598793;-0.00980494456154446;0.05816674717976156;0.8698108602752619;0.32104265624545647
B;-14.9;0.34125928143306083;-0.01800751086902541;0.04818114462716139;0.08367602032710963;0.9447264547169745;0.3490331052124107
B;-14.8;0.3926022008886747;0.003339872688914003;0.10894266259608898;0.11021759353023564;1.0198768090758925;0.3775150725401484
B;-14.7;0.4436397553844955;0.025288469408598413;0.17012698524624525;0.13694801261430767;1.0923687084758846;0.4054095054619058
B;-14.6;0.49429166856057805;0.04772142394851131;0.23149056429561377;0.16381167758286863;1.1625100687142762;0.4327822654937328
B;-14.5;0.5447552430982228;0.0706440060658966;0.2931324650046143;0.1906616773692844;1.2309113773474287;0.45982257355646317
B;-14.4;0.5946043173415596;0.09376691633697631;0.3543543793951702;0.21739539334914548;1.2975889060429573;0.4864626264720422
B;-14.3;0.6435673859857403;0.11685375764297734;0.41462471581705707;0.24411535222666259;1.3627937231892489;0.5127194012278542
B;-14.2;0.6900372612184782;0.13934799635800665;0.4722423297830627;0.2697080345147498;1.4238557067392286;0.5376450407336448
B;-14.1;0.7317467597776535;0.16049181560319936;0.5248493932785312;0.29144458445289856;1.4769192327869192;0.5598809217184746
B;-14.0;0.7679718201224475;0.18005196858640526;0.5717194126577461;0.31920422966638107;1.5206040386383535;0.578953687532072
B;-13.9;0.7979053836426644;0.19778185908612045;0.6120684430850538;0.3258293343412678;1.5532983208094002;0.5943164614120415
B;-13.8;0.8194837621370219;0.21292232674681655;0.6436181034219981;0.36493792787445556;1.571951825061081;0.6048515662876084
B;-13.7;0.8310764880083319;0.22483608049747805;0.6644978090178153;0.35760051970961293;1.5743835560111634;0.609735295379314
B;-13.6;0.8302154768993226;0.2326483420811294;0.672061836810359;0.3292660140344351;1.5566732626579025;0.6075564785992293
B;-13.5;0.8146168328686123;0.23554121588790267;0.6638421443366358;0.4245522955268882;1.5152764892241777;0.5970316357804069
B;-13.4;0.7856366832730011;0.23393221464401504;0.6412014830164949;0.3610038204887065;1.4525446513358773;0.5789830164362937
B;-13.3;0.7456236046336144;0.22858972380570708;0.6065895078701065;0.3221484008064601;1.372271776376369;0.5547607019767931
B;-13.2;0.6965516415095365;0.22011708460791457;0.5619374492488411;0.3497427971811169;1.27820018851898;0.5256530187254858
B;-13.1;0.6409181912578674;0.20929413740376823;0.5097263412255604;0.34831145297753363;1.1749250502341795;0.49325207679823224
B;-13.0;0.5798644072244379;0.19650202409148165;0.45122039789685253;0.30211549783856717;1.063960244860695;0.45811548135056146
B;-12.9;0.5139903194929047;0.18194129722855168;0.387118711199923;0.28688716710608175;0.9459582435754754;0.4204917378162074
B;-12.8;0.4453423120837954;0.16630303364284504;0.319653668380635;0.27058223155873407;0.823801803698462;0.3814349122331011
B;-12.7;0.3758500075331632;0.15024383791212115;0.2509520892433823;0.25022034050645936;0.7001306143568691;0.34191562073906834
B;-12.6;0.30649901173917016;0.13403101910662918;0.1818725810442956;0.22711857626532428;0.577374893936927;0.3027308884355753
B;-12.5;0.238398345103203;0.11794806869382057;0.1133089304761814;0.2058223822427745;0.4585744001218721;0.2648654336244012
B;-12.4;0.17166604288439302;0.10198846815821283;0.045282927873419254;0.18555862248710908;0.34449447040602976;0.228537860517962
B;-12.3;0.10625825664234512;0.08608644611773686;-0.022376111671746912;0.16532541216124708;0.23576640626153988;0.19390916924094181
B;-12.2;0.044176596808284785;0.07084603923230781;-0.08774497094591638;0.1461679487848666;0.13634192050249538;0.16233087614867037
B;-12.1;-0.012481225033162957;0.05692020023892996;-0.14872739836294713;0.12900837766698192;0.04997908812458007;0.13511066622170897
B;-12.0;-0.061860705029648244;0.044855038768658595;-0.20361510722556986;0.11453069498748225;-0.0192355464212568;0.11362105974193559
B;-11.9;-0.10209705455549667;0.03520458820301897;-0.25066292742907237;0.10345866861158792;-0.06735105075873093;0.09919749440659498
B;-11.8;-0.13356457124512744;0.027865009907584115;-0.29008082188203943;0.09564707092926161;-0.09566583093484482;0.09141100383584488
B;-11.7;-0.15753584344232863;0.022459954736417265;-0.3229238268647485;0.09060322469129156;-0.10723099114622414;0.08922596153494089
B;-11.6;-0.17417176758894826;0.01896740466530389;-0.3490882978465528;0.08825978471664908;-0.10362503457016814;0.0921609809034667
B;-11.5;-0.18394131765284172;0.017276299833005604;-0.36873566736039365;0.08843009152461967;-0.08716462150222881;0.09948739802944306
B;-11.4;-0.18791670443549435;0.01706094071734343;-0.38285093711174056;0.09070469120730218;-0.05976398604550681;0.11052007274588682
B;-11.3;-0.18685182434351333;0.018089365733948037;-0.39214369333272003;0.09479662224986107;-0.022598075455817934;0.12482419419478274
B;-11.2;-0.18248730448073047;0.019836150148665688;-0.3982079582238036;0.10003853974984667;0.021021558908437044;0.14123430081126198
B;-11.1;-0.17659713226076335;0.02176511531644265;-0.40268682394795974;0.10575096677296769;0.0678242414819934;0.1585938076164739
B;-11.0;-0.16844292230141633;0.024128022493346446;-0.40463141798841207;0.11220730748019103;0.11785615864183896;0.17699826813993713
B;-10.9;-0.15671325150670867;0.02736039913485122;-0.4024617055642281;0.11989677491656714;0.17167794452341667;0.1967579765836147
B;-10.8;-0.14061045022326013;0.03172781475672082;-0.395264624572917;0.129121180974769;0.2300282810869767;0.21817806046234
B;-10.7;-0.11907081902574035;0.037578898883517065;-0.3818609357046512;0.140282885734071;0.29403090540654375;0.2417067473373602
B;-10.6;-0.0919956000332931;0.04497443730457906;-0.36187349127643387;0.15341033696119144;0.3623678816604645;0.2669661981632161
B;-10.5;-0.05984350171498676;0.05380127783286115;-0.3355126914509121;0.16832258112809728;0.4330825900782216;0.2933285869428497
B;-10.4;-0.021973392601356778;0.064289744917154;-0.3018398681073542;0.18524872731132902;0.5054583385231801;0.3206569385323643
B;-10.3;0.02206244246433542;0.0766094753398201;-0.260124902822227;0.20434610641253537;0.5785958196415351;0.34873732062065343
B;-10.2;0.07144001204770944;0.09051662281765793;-0.21125451140676077;0.2253118096148503;0.651915967026433;0.37730736408156273
B;-10.1;0.1252667532326548;0.10573894019254704;-0.15629397187935368;0.247820031759713;0.7253640442590239;0.40625406172020506
B;-10.0;0.18190563680555627;0.12177705009845163;-0.09698635573014869;0.2712671831969675;0.7975196816209547;0.43496657272690387
B;-9.9;0.23951678057423464;0.13806630980502943;-0.03532801279665421;0.2949757929035046;0.8669737489072524;0.46281504758956427
B;-9.8;0.2981021820823777;0.1546117576685102;0.02858209217284724;0.3189427172699324;0.9342955614336645;0.48997728429849197
B;-9.7;0.3578551825300167;0.17147811445325645;0.09487863867788882;0.3432329780947522;1.0000321272117603;0.5166441363972676
B;-9.6;0.4185780364859717;0.1886082238096094;0.16317989538075572;0.3677868433544361;1.0649833487565594;0.5430440687443769
B;-9.5;0.4801982367633464;0.2059818100569175;0.23322826738718838;0.3925360856869783;1.1300783142844821;0.5694581369704341
B;-9.4;0.5410981971103652;0.2231030998255774;0.30337199871815024;0.41680348629783015;1.1934094398156887;0.5951218918521257
B;-9.3;0.5990059879223466;0.2392778093567398;0.37132597884157015;0.44011564810580917;1.2521520399110493;0.6189188742597409
B;-9.2;0.6529895269171959;0.25421511900303306;0.4361552771122117;0.4620944754434354;1.3049396362246917;0.6403236744763987
B;-9.1;0.7020009306853616;0.26758746103264364;0.49682387970147346;0.4810637405161412;1.3501525357572746;0.6587191433000728
B;-9.0;0.7441306863702088;0.2787128293037362;0.5513279428628302;0.4977265058107342;1.3859631932790002;0.6732445938395766
B;-8.9;0.7779036837530136;0.2874968710687704;0.5980700897982967;0.5145295979297677;1.4112311909991035;0.6837219086560218
B;-8.8;0.8010035307514585;0.29387674414150733;0.6346501876179449;0.5129445462658923;1.4235078912786285;0.689744814368142
B;-8.7;0.8112902818677803;0.29405966230863156;0.6588420659746372;0.5288010769804742;1.4205889256214128;0.6874890863189989
B;-8.6;0.8097373720304581;0.28750086421445054;0.6715527967328789;0.5536149118131235;1.4036547842281237;0.676651767393154
B;-8.5;0.7981385613677183;0.2887923378849071;0.6745223688523989;0.49187553292396213;1.374667387048202;0.6710815493873663
B;-8.4;0.7780918161612682;0.2944200222771387;0.6692829823556821;0.49418059501923295;1.3357097064518513;0.6678877051642975
B;-8.3;0.751645913535647;0.24401941703470498;0.6578175943448095;0.5638405619810662;1.2893675703326082;0.6114789392590545
B;-8.2;0.7195488731535846;0.2690512795496325;0.6408169819626011;0.46846177894268004;1.2363164676349498;0.6240208282433253
B;-8.1;0.682106880066808;0.24577212225559686;0.6185343349494303;0.47503993389802823;1.176745648164097;0.590527752929229
B;-8.0;0.6407988174951171;0.22953198173623268;0.5923860600607984;0.46352913775369886;1.1120891683050793;0.5623622457423889
B;-7.9;0.5970143192944022;0.21212895678233412;0.5637022708199932;0.45316715475975167;1.043658118342357;0.5331485485841228
B;-7.8;0.5516295953063306;0.19367327072394636;0.5333163923021367;0.4406431426021873;0.9728425208948153;0.5035501666538225
B;-7.7;0.5056851260882347;0.1838142752775178;0.5022226972380004;0.39182550049500686;0.9014223537630954;0.4781264651418389
B;-7.6;0.4593598190708654;0.17942652861347286;0.47056516987627717;0.4006656155249567;0.8299209159485272;0.45546556809111216
