Condicao;Tempo_s;Ch1_HbO;Ch1_HbR;Ch2_HbO;Ch2_HbR;Ch3_HbO;Ch3_HbR;Ch4_HbO;Ch4_HbR;Ch5_HbO;Ch5_HbR;Ch6_HbO;Ch6_HbR;Ch7_HbO;Ch7_HbR;Ch8_HbO;Ch8_HbR
A;-20.0;-0.010502511898323519;0.03256503979002012;0.2538330262857116;0.08039110805256477;0.17755791382270303;0.04367183723704038;0.362698004526969;-0.026353281677999885;0.1396733193136086;-0.036766648466795004;-0.3286500645760797;-0.5208975352451994;0.43701421477253755;0.13988197898234844;0.6742146732981293;0.1232734872087752
A;-19.9;-0.018878786721444385;0.030685939421159603;0.2635013667319832;0.08851097552719711;0.1750990430371715;0.045032684636600706;0.3692944234111124;-0.02458189265820865;0.14020082705522086;-0.036993537645223284;-0.33250591589338585;-0.526124179214507;0.42493420944275284;0.1304979846212948;0.6783471284132485;0.12394561437059151
A;-19.8;-0.02729392053210411;0.028836882255941276;0.2733374034278677;0.09674272474694856;0.17202301667737885;0.046143579315469196;0.3762319470753557;-0.022383856677374858;0.14006453464389956;-0.03721154723106146;-0.33440874505263807;-0.5296725522712391;0.4125236732118953;0.12112753455694758;0.6825270807853325;0.12479909094380312
A;-19.7;-0.035721561740340135;0.02699494733690777;0.283014308527731;0.10490850600951074;0.16848292221941463;0.04702728748632978;0.3830519891759323;-0.020043655153940687;0.13940006856626752;-0.03743500608120698;-0.33556222063034324;-0.5325506351965097;0.39988042244758404;0.1117708199073224;0.6863797744784836;0.12567138864558422
A;-19.6;-0.04387063048643114;0.025218121933615834;0.2924699658757337;0.1129476360658428;0.16468237167545396;0.04772038695025138;0.38980260256631105;-0.017475250853213442;0.13828495534998808;-0.037674415973086184;-0.33659314800834395;-0.5355161229492138;0.3874159163864408;0.10265826630995889;0.6899663735819157;0.12662514599046923
A;-19.5;-0.051317202201364154;0.023592938572670974;0.30168459242143975;0.12080599063339736;0.1608994954376577;0.04827211571694079;0.39663776775261894;-0.01451022535304336;0.136821338062866;-0.0379406020684776;-0.33284122029117924;-0.5340506860273768;0.3757134852372328;0.09411319660957851;0.6934629765932279;0.127782386703806
A;-19.4;-0.05793936648965925;0.022154843155465898;0.3106613018858768;0.12847960712314332;0.15717673204592586;0.04869357799051244;0.4036551869066187;-0.011038616672988777;0.13499549427527668;-0.03823709770232675;-0.32293088129814596;-0.5268317184282241;0.3649447532754677;0.08626746333858648;0.6969292067916353;0.1292031917286934
A;-19.3;-0.06359844429806039;0.020946808562065655;0.319433375031128;0.1359808012655943;0.15355499992734067;0.04899748399010839;0.4110082967400217;-0.006910600331283323;0.1327834120617819;-0.038567039520918556;-0.3252562762321243;-0.532679780732503;0.3553004474566688;0.07927208820289877;0.7004674706396443;0.13096912875933428
A;-19.2;-0.06789667121240228;0.020028024742682504;0.3278569987538722;0.14317882282295535;0.1503644587901185;0.0492341463789252;0.41861388948174394;-0.002134120540828288;0.13037076028656003;-0.038941162002195995;-0.33439969231932043;-0.5461950624760408;0.34734466159437494;0.07338210436086001;0.704105612569073;0.13311857853132084
A;-19.1;-0.0705156948667085;0.01943616745744059;0.3357474904948283;0.14992623025075336;0.14789769070715053;0.049444878226706734;0.4262895289511466;0.0032070476624785904;0.12794537606467848;-0.03936801787602917;-0.269141077488376;-0.48478942572588757;0.34153866243130304;0.06878385109450669;0.707790392637822;0.1356462409216693
A;-19.0;-0.07098524091622238;0.019253906447454838;0.3429883661966606;0.15611012860208984;0.1465346676785373;0.049697229732855064;0.4340443478130247;0.009178096938606384;0.12569472428416617;-0.0398626027022182;-0.3044455654843885;-0.5266321599319252;0.33854929344117;0.06580604824598701;0.71160856239079;0.138622374836581
A;-18.9;-0.06886218671172095;0.019555071839656435;0.34946577454554983;0.16161638945592216;0.14663456331009428;0.05005186007367968;0.4418653704221658;0.015821598759714117;0.12380759956364251;-0.04043683843019252;-0.2746184464335326;-0.503317356309886;0.33900252583530355;0.06474542137664585;0.7156431040881213;0.14211075287093064
A;-18.8;-0.06440960569108434;0.020292380175460423;0.3551149934237836;0.16644173816831387;0.14799196710114515;0.050473657467092536;0.44959783598230985;0.023043169169401523;0.12219995469131106;-0.04108150478556105;-0.252400687799442;-0.48866705882939554;0.3425554531562729;0.06544411822872398;0.719708268690658;0.14603692649385444
A;-18.7;-0.05809078370388754;0.021392697683896955;0.3599003642567311;0.17063326835927128;0.1502413010581769;0.050907972572346694;0.4570961583756752;0.030748504855561354;0.12069202579671057;-0.04178443081439376;-0.2305779897684448;-0.4750821166746615;0.34859583153119544;0.06763849190412508;0.7235524728969516;0.1502945685570479
A;-18.6;-0.05024959319659672;0.022773230236628805;0.36377434238048334;0.1741743266178819;0.15310612445695782;0.05128794202547482;0.46411415993438254;0.03874626588120633;0.11921868919120548;-0.04252259220385923;-0.21028888944616986;-0.46349659504646246;0.3566472667891567;0.07104557192300831;0.7269999511891267;0.1547934783244759
A;-18.5;-0.04133039940347416;0.02433368563370486;0.3666951037124804;0.17706333318949596;0.15623233835098205;0.051533841998784524;0.47038282723181446;0.04682297879025099;0.1176788861412188;-0.04326985775263914;-0.1869751783940714;-0.4490000471052813;0.36609599086186506;0.07531644608692112;0.7298354682774448;0.1594222539603851
A;-18.4;-0.03157444032189716;0.026055563491734546;0.36863230858284357;0.17934781364071206;0.1594494753237825;0.05164229851590285;0.47588567784940317;0.05499059457926614;0.11595481776221028;-0.04402822631869796;-0.1614637008173352;-0.43230096633274506;0.3766503615446317;0.08037446793077052;0.7319007998101519;0.1641214260430365
A;-18.3;-0.021108723865784995;0.027938332042925396;0.36956740622112605;0.18106385406076964;0.1626755846186292;0.0516233717226644;0.4806429838088775;0.06328383106222879;0.1139770995549032;-0.04480122456303448;-0.13555084002267437;-0.41515936176606405;0.3881703976984179;0.08620614049853081;0.7331087095636164;0.16886053254850933
A;-18.2;-0.010364279250341113;0.02993683225652788;0.369467231627322;0.182290112837042;0.16559552867565586;0.05145546147209146;0.4846079055999173;0.0716950433131065;0.11154456290315373;-0.045588498203724015;-0.10908595568401269;-0.3971928684363537;0.4001129039282989;0.09263452974876252;0.7332005514494249;0.17353719605735393
A;-18.1;0.0002515473715440919;0.0320123195354487;0.3683078170854355;0.18311035577668555;0.16791618846882628;0.051123519891211444;0.48775834544254515;0.08023210483966392;0.1084628186861103;-0.046391272518185644;-0.08209904115578093;-0.3782215960971753;0.4119683785851693;0.09950203796922885;0.7319378846147284;0.17805611233770394
A;-18.0;0.010643732352374258;0.03410545894581496;0.366110313977984;0.1834789063451172;0.16954134841857282;0.05057266060306276;0.4899112920216133;0.08871006746383525;0.10480649001164188;-0.04717939250466685;-0.05484819603861446;-0.35844185049334;0.42356699727218183;0.10660221696362449;0.7293727247998003;0.18240419351068496
A;-17.9;0.020723730420675324;0.03613589072812751;0.3628942320531463;0.18331522304065828;0.1703664864886072;0.049724881568078416;0.49079761652310516;0.09686373437328677;0.10069670888186799;-0.04791147747087798;-0.027560957647414508;-0.3380081720159398;0.434724604774936;0.11366350798687108;0.725582618655098;0.18656889653344413
A;-17.8;0.030562312537934844;0.03808483342182356;0.3587016371950007;0.18258268765295504;0.17044507239103268;0.04856491736702395;0.49034576942238317;0.10458792674525452;0.09625742944527715;-0.04856844236251234;-0.0002780157868822464;-0.31699913532934065;0.44550919441685277;0.12061401710318087;0.7207104252456524;0.19057435318665175
A;-17.7;0.04027809483230982;0.039933841792885616;0.353588957235476;0.1812335217428407;0.16986383443612496;0.04707564471042325;0.4884815796076136;0.11176305611986859;0.09164775334708253;-0.04912803073248284;0.026986566636351128;-0.29549449428755703;0.45604332591019725;0.1273833982312773;0.7149481089994101;0.1944588842475782
A;-17.6;0.04953472206582177;0.04159169903228488;0.34751559579107116;0.17923818353862675;0.16835306105972947;0.04518365875265218;0.48493457131499085;0.11816895887186885;0.08683212004014784;-0.049560968308606235;0.05383820552175145;-0.2736734776359917;0.46584913243348947;0.13365895167130049;0.7081388332318319;0.19813367606051055
A;-17.5;0.057942178604246664;0.042977521906092164;0.34042180887068785;0.17659523595578808;0.16562065849124252;0.042832237679439444;0.47947656843332;0.12363724237222051;0.08171892252381951;-0.049847904156285594;0.07985818400141165;-0.25171163662781426;0.4744006581348108;0.13915976308537736;0.7000523597382369;0.20148916815206228
A;-17.4;0.06524330084181962;0.04399022994303259;0.3323277613058879;0.1732568793690108;0.1614377054960876;0.03993123761326167;0.4718322177422518;0.1279006352177392;0.07634801718622519;-0.04994727545541444;0.10472187551574086;-0.229779721347541;0.48129180220779144;0.14353493773741022;0.6906711224513487;0.2044736007963204
A;-17.3;0.07115738736038857;0.044533530198801685;0.3232320308130463;0.1691820801742301;0.15556919816565795;0.036399192385347945;0.4617332880765481;0.13071101266308038;0.07073472318399787;-0.049822846035256774;0.12807593195339306;-0.2080573826205947;0.48609806547236367;0.14645170464948265;0.6799264282425757;0.20702042614101426
A;-17.2;0.0757475928745297;0.04465485596414709;0.313151260986527;0.1644293730913029;0.14814075539858962;0.03230593589850095;0.44934427572009383;0.1321874992678107;0.06488553770678784;-0.04949459633710873;0.14993405154403838;-0.18658423728682183;0.4889588124818065;0.14804809121270424;0.6678407696099153;0.2091277340217362
A;-17.1;0.07925922326715096;0.04444524398347127;0.3021615285392043;0.15908157242403842;0.13943352345452098;0.02776120798860049;0.43498728923700547;0.1325475274175727;0.058858976419095654;-0.04899271517280468;0.17050703718111304;-0.16533418788346843;0.49026638313322035;0.14859928044946358;0.6545838010473517;0.2108481687369699
A;-17.0;0.08160894304655031;0.04396560538901184;0.2901511861174466;0.1532162153514358;0.12950901322513175;0.022865426168534597;0.41881040692162586;0.1319757303311393;0.05253376456065695;-0.048359940161594395;0.18962928350974018;-0.14439899483113527;0.4900252666251652;0.1483042178990921;0.6398927678047048;0.21209787835472751
A;-16.9;0.08275933500416954;0.043297001182468264;0.2770126358482985;0.14692657342614446;0.11847862984159008;0.01774066251676487;0.40102532605419583;0.13070976167871584;0.04578586177556687;-0.047647208704631794;0.20718587371598396;-0.12385135439389017;0.48831602096201365;0.14742738779447073;0.6235171228277725;0.2128014761639809
A;-16.8;0.08301263426914751;0.04248971870679519;0.2629468280613052;0.1402650948723716;0.10661182329198482;0.01244173898288281;0.3819124152791993;0.1288470654510545;0.038782593012983924;-0.04685492510866496;0.22347919724993925;-0.10364573999668081;0.4855288160812883;0.14609508428450546;0.6058616012620455;0.21306837280090282
A;-16.7;0.08261358044589429;0.04157217134155822;0.24814523326083382;0.13326735966606051;0.09412226587125971;0.007001506174018957;0.3616855541579067;0.12643098072696635;0.03168741907613182;-0.04597610454976753;0.23874526688887387;-0.08376200989242966;0.48196251527490386;0.14436433312810948;0.5873001438327119;0.2129929021173366
A;-16.6;0.0819974224953075;0.04063241042289967;0.23284864008170647;0.12601329879760392;0.08139839004441995;0.0015109633362087038;0.34075325016562985;0.12364791908582284;0.024697241530885705;-0.045021922359536504;0.2534346230862985;-0.06410408418615798;0.47819992715932536;0.1424793430174791;0.5683384911718097;0.21272402393952464
A;-16.5;0.08161701273505706;0.03975492018701843;0.21731938142485419;0.1185796133240018;0.06883505734027295;-0.003944711532120948;0.31952893517133063;0.12067367562585618;0.0180259103100866;-0.044000036494873385;0.26802288131158347;-0.04456811961960794;0.47483616880642066;0.14067072474266773;0.5495222223503049;0.21242134398759324
A;-16.4;0.08114885600370947;0.038953470643180665;0.20132787310456912;0.1110077929575608;0.0563130200444526;-0.009300987693238838;0.29797150351318535;0.11759506656343666;0.01145854513719513;-0.04295015196958829;0.2820474941010622;-0.025350104968747234;0.4715580543146012;0.13900394686522866;0.5303083227134486;0.21190513865179053
A;-16.3;0.08006428317342618;0.038236196853041804;0.18449244524382813;0.10334220938468253;0.04359149451367372;-0.014482622688776203;0.2759413834697906;0.11451119799160625;0.004646191588497217;-0.04192830249114898;0.2947926667050562;-0.006725389824737249;0.46783165805876603;0.13754513647284305;0.5098277915522704;0.21089842561407965
A;-16.2;0.07809564297909333;0.03758798792591733;0.1666898153729104;0.09560246217602408;0.030549090286424274;-0.019466339083875184;0.253387683526908;0.11142812849926043;-0.0025433580573679393;-0.040951669424931225;0.30589438154465354;0.01114136544623201;0.46335589222636875;0.13625390748100052;0.4877311685752641;0.20927050901622377
A;-16.1;0.07489317329203082;0.0369839250786157;0.1477475807101598;0.08780190260512644;0.017007142291429744;-0.024234125181671118;0.23020779226180998;0.10833727377402647;-0.01028569285939085;-0.04003984081786882;0.31489127973682773;0.028055385978976943;0.457729679738645;0.1350655316311773;0.4635573009755696;0.2068557123009486
A;-16.0;0.0702796171119946;0.03648005343259264;0.12748416295571197;0.08002029500466712;0.00297260501088914;-0.02868256913333056;0.20649221952786334;0.10542169033817705;-0.018760476381622482;-0.03924390165994218;0.3214925163769662;0.043880397489816314;0.45085314364170426;0.13417279817359606;0.4368935788433177;0.20352543209650145
A;-15.9;0.06426615331148966;0.036144442151750056;0.10585336779653076;0.07234535939243525;-0.011430196418128702;-0.03271021746616931;0.18243883982784403;0.10287423819075592;-0.028035541567762223;-0.03860390100415856;0.32564684223028184;0.05855830019031316;0.4428379568067067;0.13378922646311509;0.40761744253362764;0.19923988648295668
A;-15.8;0.05646964561634249;0.03601810557407781;0.08252230844485453;0.06484297738890987;-0.026326475758800427;-0.03621485837921057;0.15801833121619602;0.10086715798656276;-0.03841810818774327;-0.038183589843596266;0.32680589646799474;0.07187502714447924;0.4333483746323643;0.13408393826327014;0.3749864437638024;0.1937716796271158
A;-15.7;0.046583225044233956;0.03614584133349297;0.057217034149680934;0.05758364136985161;-0.04179726540715478;-0.039097141365544985;0.13324139382975453;0.09957367419220642;-0.05016815254137441;-0.0380414164701115;0.32452372279791897;0.08365132462986025;0.42213229446145917;0.13522954158547584;0.338384933498622;0.1869326040876347
A;-15.6;0.034945368016716216;0.036522027102599;0.03030778064894335;0.05058997446386826;-0.057622691136096194;-0.04137790960579224;0.10836606559180062;0.09895947350929446;-0.06301852441147204;-0.03814237375519802;0.31923904675488135;0.09398939931634254;0.40952211279794426;0.13715381248595548;0.2984876260208704;0.1788984416537334
A;-15.5;0.021972653412456467;0.037112531291025874;0.002277584522603071;0.04385540028458035;-0.07357206967507679;-0.04312089336355385;0.08364801164475111;0.09890899944796971;-0.07660957561146553;-0.03842797114657159;0.3115113974986534;0.10303264333386797;0.39588581328799366;0.13968298807492197;0.25617750380834003;0.16989964982288683
A;-15.4;0.00833144816376219;0.03793446734048089;-0.026259508089395922;0.0374297944794737;-0.08922743210993289;-0.04435061361124504;0.0595225083304296;0.09940466786733881;-0.09047487853294456;-0.03884306246006908;0.3022114156484923;0.11102593471391775;0.3819269724528809;0.14277834547467272;0.21266580508685884;0.16027828649808748
A;-15.3;-0.005216147485960221;0.038998315546356466;-0.05459643776787182;0.03135634803084031;-0.10412627639062677;-0.04510883218343942;0.0364618610524694;0.10040084745497446;-0.10407255027863194;-0.03931933623542072;0.2923421200939029;0.11825788618133903;0.36843699215887815;0.14636843261854615;0.16935102869488894;0.15043013846030792
A;-15.2;-0.018654203904292288;0.04025897444063631;-0.08259717557873891;0.025608908441896006;-0.11827706720609399;-0.045439871637187323;0.014496566356044127;0.10180674067425688;-0.11732364483061453;-0.03983487885405701;0.2819397701892936;0.12471766283782837;0.3553538959281739;0.15030170552762456;0.12639149946352646;0.14037714893935585
A;-15.1;-0.032059071960455654;0.041678662169985614;-0.1102229009846365;0.02016817108732294;-0.1317355269786944;-0.04537236072213169;-0.006387838592459616;0.10356118564688832;-0.1302272525282362;-0.040381613426569984;0.27091772490787136;0.13035981190988633;0.3425319526551558;0.15446329831890004;0.08375688195509401;0.13009075947247448
A;-15.0;-0.045308687407658255;0.04319308253385756;-0.13720954634015126;0.014988433257458134;-0.14447063519871506;-0.044983534799957425;-0.026125026310545252;0.1055130438554015;-0.14260396121690455;-0.040916032641739264;0.25946538540366504;0.1352218214458023;0.32998873527122274;0.15862600350804001;0.04184793721802205;0.11965767065480917
A;-14.9;-0.05833394266347547;0.04473453381894288;-0.1633397423621874;0.010018463612379236;-0.1564873595803853;-0.04435136222761926;-0.04468699850283464;0.10750923901318221;-0.15431059939054315;-0.041398674182149264;0.24770495117063263;0.13932400043849436;0.31768182221428454;0.16256043183347835;0.0009698821135515345;0.10913815414130462
A;-14.8;-0.07050380623842223;0.04635144862629659;-0.18809980415176764;0.0053418537856027015;-0.16737445336197965;-0.043466326668088584;-0.06165714206322903;0.10961352819685333;-0.16495863520085585;-0.04179672645589072;0.23646426612460125;0.14291728658162484;0.3063259799595772;0.166338213476676;-0.037814541320631;0.09885120464236793
A;-14.7;-0.08093639767198546;0.048124207080253;-0.21080337935601;0.0010810762108874883;-0.17655027247431576;-0.04230251514238681;-0.07645389149643478;0.11193772481001973;-0.17402173072641247;-0.04206880741880603;0.22689403764896365;0.14635359029790918;0.2969437187334365;0.17009978454563068;-0.07305050512368094;0.08923830604371752
A;-14.6;-0.08930227134945845;0.05009043095413901;-0.23120825551424762;-0.00270176628655161;-0.18379118905028236;-0.040840701915417554;-0.08885283808545985;0.1145560772107459;-0.18132299879751912;-0.042209102293229606;0.21942638677201742;0.14977241762743443;0.2899219157237227;0.17392905629725597;-0.10423291324082928;0.08046106531740166
A;-14.5;-0.0952326308503757;0.05229937529548501;-0.24906193785814867;-0.005932232866931564;-0.18884421716915867;-0.039052593333179786;-0.09860655033023136;0.11756580648898574;-0.186674905869479;-0.042214413329757505;0.21454294882960223;0.15333269075322287;0.28570624568384995;0.17794356760689745;-0.13081516638143853;0.07269892878965262
A;-14.4;-0.09797708740731537;0.05478164441482036;-0.2636972153882091;-0.008544830855841568;-0.19124090677781425;-0.03695828855089722;-0.10522405333276019;0.12097289273072365;-0.18957729023191305;-0.04202821889362873;0.21323966289467977;0.15732936603412373;0.28510882306513796;0.182138707850104;-0.1514530138290704;0.06634096770343204
A;-14.3;-0.09695915542508438;0.057540037042503656;-0.274556463178973;-0.010509061890539684;-0.19063538530630098;-0.034595951647435896;-0.10832931956511693;0.12473657807894489;-0.18961960806224987;-0.04159676740633245;0.21629105790742909;0.1619878480707635;0.2887200159782646;0.18644480064796554;-0.1650620703173411;0.061692492995367
A;-14.2;-0.0912611952324145;0.06063317725365991;-0.2808857629068262;-0.011727757323425791;-0.18645124441784588;-0.03197123065457852;-0.10734881630755844;0.12890676839456527;-0.1862228366727603;-0.04086215880847277;0.22490996488964266;0.16768159705109453;0.297569025808174;0.19092814034133276;-0.17006177799408917;0.059226602600594785
A;-14.1;-0.08004518210574929;0.06410919201139365;-0.2819827886482029;-0.012117936873796253;-0.17816431535840493;-0.029094894540122596;-0.10175405409589011;0.13351724324671155;-0.17885138461734762;-0.03976868633228037;0.24020576627603774;0.17474986565927364;0.31258787092104523;0.19563210677170417;-0.1649927318650457;0.059376936947301895
A;-14.0;-0.06376932213456143;0.06791333798191701;-0.278183163817431;-0.011743516973971246;-0.1660880564249254;-0.02599451654520557;-0.09184796475002166;0.13851009244306445;-0.16778695923970766;-0.03834314313264464;0.2615969339855777;0.18302903176232888;0.33321142920584235;0.20046039747200695;-0.15062876391524238;0.06191593111617094
A;-13.9;-0.043227974873786934;0.07197439454991716;-0.2701252792260087;-0.01069708154138116;-0.15075396769037397;-0.02269371697388678;-0.07816999337089214;0.14382498988914105;-0.15354071202867559;-0.03664010584202515;0.2880621283441358;0.19223442727287088;0.3585031498798821;0.20531678858530356;-0.12835788726829556;0.06644436730858932
A;-13.8;-0.019167879648092523;0.07619468687133946;-0.2583053268599498;-0.00909675264273968;-0.13265791635505764;-0.019240177397795932;-0.06115946185959409;0.14933614395970807;-0.13653903772834752;-0.03469052331962352;0.3186422448809143;0.20206599800150715;0.3875381550638761;0.21000168068056446;-0.09936548971017967;0.07259060532468953
A;-13.7;0.0074766482845856075;0.0804612402367777;-0.24337093013936695;-0.007083217688952814;-0.1124187758919355;-0.015685106564001572;-0.041379324569922105;0.15490280135489987;-0.11732697894150412;-0.032536989487711665;0.35213444571341057;0.21215249373579592;0.4191745064081118;0.21429439163463648;-0.06516032105806069;0.07988786378442939
A;-13.6;0.03636455846175224;0.08475738246430709;-0.225668078865076;-0.004682696484339388;-0.09028350651390937;-0.012034046681195676;-0.019136238225003765;0.16053001944854794;-0.09616281478706235;-0.030216525486029155;0.38810745060593543;0.22240708642902485;0.4530334126482338;0.21821526770588662;-0.02641244343297;0.08817207097965604
A;-13.5;0.06733300845750634;0.08908146141112105;-0.20539959299727695;-0.0019012512372995616;-0.06638216422981458;-0.008289217048092823;0.005380657983096171;0.16623486302952561;-0.07319187560723428;-0.027754510079640582;0.4263602779327811;0.23280912286581867;0.4889462271369087;0.22180601635159647;0.01652119153174425;0.09737121743528002
A;-13.4;0.09974670486324833;0.09339760321165969;-0.18317035741581122;0.0012037863297065243;-0.04115854632864213;-0.004458598202180752;0.03165437159603535;0.17201238655489193;-0.04887127982165396;-0.025210170993934966;0.4660832742871359;0.24317153151668602;0.5261967599134922;0.22507240470604017;0.062432070294509145;0.10716975040243465
A;-13.3;0.13300988536951053;0.09767674148399763;-0.15956592849502282;0.004582342404791717;-0.015031721357178895;-0.0005470721897182784;0.059183824519099204;0.17786589039949763;-0.023638530247360734;-0.02264203767701467;0.5065171523869623;0.25332511780528044;0.5641224689274049;0.22803726722126605;0.11017166594478311;0.11727362634785227
A;-13.2;0.16663677807712318;0.10183413733579805;-0.1348311433868048;0.008133235578490883;0.01168072477830151;0.003396195883034636;0.08774122616337188;0.18366077184594798;0.0022663906413136203;-0.02005525784755413;0.547035621224869;0.2630466268060705;0.6020999356970604;0.23049685642713413;0.15907283809216466;0.12744898524128787
A;-13.1;0.20004592337212657;0.10575592888297614;-0.109210533469291;0.011722541029643097;0.038604770822900036;0.00730422466726921;0.11709576999801818;0.1892103600444992;0.02858045332314596;-0.01744661606977793;0.5868895243259669;0.2720521384255401;0.6393607672107884;0.2321594187550584;0.20838398818770365;0.13741245026732793
A;-13.0;0.2330585534244296;0.10939742466487523;-0.08275608678439994;0.015297719917489516;0.06561790333793383;0.01114317160984335;0.14717320778756005;0.19442574951320024;0.05523577432446025;-0.01481000483539674;0.6258469882838429;0.2802478819067846;0.6756700068219461;0.23290905923579608;0.25793146708236137;0.14709278697867326
A;-12.9;0.26552432680372107;0.1127109280052867;-0.055474061835123045;0.018803573054170464;0.09261947652271374;0.014875992272051164;0.1779374033217458;0.19920630570652986;0.08219427667515156;-0.012133000824141149;0.6637112868798236;0.28754079763841234;0.7108199360914322;0.2326124523707307;0.30762067061028553;0.15643429142112605
A;-12.8;0.29667691719854616;0.1155905328069533;-0.027865882041740342;0.02210458330178433;0.11909184180530374;0.01844538748910196;0.2089415554199654;0.2034099299059362;0.10901720010812;-0.00944245644869035;0.6995103345539193;0.29363218462769813;0.7438477324531838;0.23104644849127354;0.3562380898594011;0.1650536246876649
A;-12.7;0.325774667223957;0.11794878601664394;-0.0004819667184916554;0.025083329686109934;0.1445224512358827;0.021804913955948635;0.2396951204159734;0.2069321726019293;0.13524734457705279;-0.00677538108005038;0.7323085726444281;0.29826084585044343;0.7738417870081116;0.22805224664933021;0.402535803943012;0.17257998354886292
A;-12.6;0.3520150341311403;0.11966309026929522;0.02621589997241003;0.02758543099724431;0.16838473589699632;0.02488928887000519;0.2697946277699348;0.20959230435463794;0.1604575489008777;-0.004148437257462945;0.7610783803367873;0.30107998293855354;0.7997836780121526;0.22334663598400795;0.4453263844999622;0.1786133958939727
A;-12.5;0.3746275301766495;0.12061963847316193;0.05176071680374328;0.029465397373380497;0.19016528596326054;0.02763664934640353;0.2988277538083146;0.21122690760793028;0.18422471411999197;-0.0015811472071334265;0.7848392301072518;0.30177140593411433;0.8206975474076541;0.2166741136377528;0.483438802869367;0.18276926320802564
A;-12.4;0.3937725920349102;0.12086472068545362;0.07612010442881356;0.03076730888690804;0.20992649333352276;0.030060075582138523;0.3267236263256219;0.21189905473260984;0.2065747891285099;0.0009123228016836293;0.803808275532635;0.30046338661348804;0.8368407586886808;0.20818930903251776;0.5170274235572965;0.18515518719963495
A;-12.3;0.40990835892769795;0.12048921810108482;0.09944231429676353;0.031589157428732584;0.2279271265605658;0.032194619903565425;0.35356548073350424;0.2117244695359093;0.22769869016209654;0.003326648759262696;0.8185770056529904;0.297401906120637;0.8488620635009239;0.19814850218999425;0.5467287029813495;0.1860379752558227
A;-12.2;0.423297889943429;0.11956971458624999;0.12165329352716903;0.0320062181885854;0.24426088138953972;0.03406333492972635;0.3792244499586186;0.210834723273982;0.24762016018144095;0.005633957167079373;0.8295240890613367;0.2928283322370375;0.8571475709516652;0.18680797880289113;0.5727023031812166;0.18557039738500955
A;-12.1;0.43433368036913045;0.11820598860935583;0.1427362307239015;0.032120635346878146;0.25910116997940946;0.035700361235369016;0.403616976887907;0.209394444892953;0.2664238349271546;0.007806813941668267;0.8371950573281866;0.28704723874695204;0.8622562780939902;0.1744841029180666;0.5952892158361784;0.18397361904820883
A;-12.0;0.4432376055031071;0.11643975880511093;0.1628019870539399;0.03197234997123655;0.2725864333924797;0.03712224991637747;0.4268285126019258;0.20743091074282205;0.2842226529710725;0.009851107424553973;0.8418597684146221;0.2801425647528022;0.8645245970319464;0.16128358019040512;0.6148960729738118;0.18139211098888622
A;-11.9;0.4501127110488081;0.11429138312744591;0.181907432800414;0.0315753849792646;0.2847796508723661;0.03833492058975807;0.4489032894309837;0.20494301170050178;0.3010702122612212;0.01177254825396723;0.8436398334499908;0.2721450261145584;0.8641248219790314;0.1472567726256031;0.6317540198013631;0.17790487626446097
A;-11.8;0.4554050480364591;0.11183988764315878;0.20028403629729308;0.031014146185707858;0.2959664373350037;0.03937400304114824;0.4700263339420161;0.2020029633988114;0.31720017079739904;0.013581557824350554;0.8430840618658793;0.26322988062255837;0.8616991474481748;0.13260229237527632;0.6466240345682479;0.17377912590209801
A;-11.7;0.45955201682120084;0.10916100008833673;0.2181734168473195;0.0303690060736308;0.30643147089258704;0.04027439560995738;0.49039768739181966;0.19867582348801438;0.33284783524271333;0.015290958040148794;0.8407284957806662;0.2535604110326495;0.8578758697925344;0.11750524965035503;0.6602717234894211;0.16927671148956538
A;-11.6;0.46260993428053077;0.10629834480017841;0.23536080726507347;0.029671544164335373;0.31611412254754256;0.041038323981617;0.5097656615955675;0.1950681657880906;0.3479015303752657;0.016865992306341226;0.8367212527069774;0.24333055129311987;0.8527356561136026;0.10214516102727167;0.6724579310275729;0.16442573343827502
A;-11.5;0.46459518367807817;0.10330063533989708;0.2515200434323148;0.028956131782107875;0.3248958502314032;0.0416653364556705;0.5277584177187702;0.19131892384939664;0.3621807085687472;0.018256876777604347;0.8311868358999255;0.23277992019107563;0.8463014710980243;0.08674167022984669;0.6827453124981542;0.15922627607454312
A;-11.4;0.4654256492997053;0.1001803251468889;0.266435869360131;0.02821770588603023;0.3326524485667477;0.04214754171387547;0.5441565989279251;0.1874785130161014;0.3755342508344288;0.019438352369919087;0.8240837887323482;0.22199691512837583;0.838464201908709;0.07137235975316969;0.6907791691062553;0.15363131708516217
A;-11.3;0.4649776437555335;0.09694522960833751;0.2798503512708228;0.02744461905024309;0.3392237843967223;0.042473267431523354;0.5587006654825721;0.18360016188351547;0.38777552737190923;0.020381224934446607;0.8153290370059687;0.21107086795893992;0.8290517444210825;0.05610872314278481;0.6961005259276973;0.14756704246811367
A;-11.2;0.4634868901323337;0.09367259353711255;0.2916375335117021;0.026709257758337657;0.34467456265607765;0.04266433064139008;0.571207751088334;0.1798242754719328;0.3988982141470725;0.021053942675228754;0.8052786355809363;0.2002564368105546;0.8184154744419394;0.04121997179171899;0.6987754935583439;0.14116901021537223
A;-11.1;0.46124424452342616;0.09044179012789222;0.30176803822688836;0.02608881035076127;0.3491338620437112;0.042749233176319734;0.5815982039098575;0.17627170551661098;0.40896456842096995;0.02143692153506116;0.794331654871987;0.1897777609081186;0.8069939773953285;0.026961024413164836;0.699068891756859;0.13461014583918765
A;-11.0;0.45846676137911224;0.08733147965380361;0.31004747661932175;0.02565530540101779;0.35262458260041285;0.04274476938231331;0.5896149282225256;0.17311262201426714;0.41791693822632503;0.021488866227077352;0.7828569251782858;0.17994124456939065;0.795084016121955;0.013619456425399079;0.6968925148421778;0.12800106784763446
A;-10.9;0.4553712943371462;0.08441822573995772;0.31630911048654653;0.025479503794760383;0.3551839995327377;0.042669893246293;0.5950336225218607;0.17050384100506255;0.4257166004688102;0.021173155118901832;0.7712083964504721;0.17102702133447623;0.7829933908180009;0.001470709340031462;0.6922115017103501;0.12145734816773959
A;-10.8;0.45193288814874144;0.08169498131005604;0.3206382997033339;0.025540871985057834;0.35683474329976406;0.04252917525325728;0.5979859555762967;0.168392581354734;0.43239033326576326;0.020509556583709454;0.7593271498594918;0.16294605708940746;0.7707200639957072;-0.009538109236238768;0.6851821796481801;0.11498218776102681
A;-10.7;0.44803849495784576;0.07912690291288094;0.32316778644337063;0.02578762038065463;0.3575697194458982;0.042318186045751105;0.598681290037927;0.1666753870023523;0.4379561442919151;0.019531052800722648;0.7470335855401982;0.15552280009683117;0.7581232358125063;-0.01956169666702401;0.6759312581803183;0.10852588249196435
A;-10.6;0.44365277053318586;0.07669946155768415;0.32407827191487737;0.026195576617939587;0.35746384873923276;0.0420507126806573;0.5973623817329425;0.1652424268152073;0.44251379898616783;0.018274303149629745;0.7341878345428312;0.14855455487428904;0.7452487817396469;-0.02869336423274582;0.6648229962638119;0.1021135611045543
A;-10.5;0.43871278195012664;0.07438696841871995;0.3235927541458983;0.02672864520572471;0.3565957042784724;0.04173924548007335;0.5943294061126387;0.1639548533907731;0.446177512015943;0.01678461966895739;0.7205994438171399;0.14178738533628032;0.7321070206496341;-0.03707223353698197;0.6522617873732717;0.09575750666947672
A;-10.4;0.4331808806070665;0.07217568902699512;0.3217530270389739;0.0273584310856565;0.3549401272775192;0.04137605052012816;0.5896674473828813;0.1627975973617779;0.4489164956578975;0.015075007301968313;0.7062623269736661;0.1352107807216838;0.7185953386062032;-0.04476446730704531;0.6382145252611373;0.0894189343322487
A;-10.3;0.4270467527637649;0.07006211784363181;0.3185660651628419;0.02806896620167265;0.35247301500785255;0.04095548599009646;0.5834117497249309;0.1617826469065351;0.4506920080624912;0.013151254128247913;0.69121771056663;0.12885944651134107;0.7046484376420781;-0.051793315806868634;0.6226185067845158;0.08307237644478946
A;-10.2;0.42022163331930784;0.06801314614292764;0.3141297761555757;0.02880884257272065;0.3491625581638189;0.040465286334328;0.5757315711007553;0.16085281207702207;0.45148110493196825;0.011038586259026317;0.6753808509563335;0.12265184674781837;0.6900820970584471;-0.05830374242372116;0.6054634397617242;0.07664746221502694
A;-10.1;0.41262180467105125;0.0659962475421434;0.30853540977320737;0.029528034018343696;0.3449738362645576;0.039892075143365346;0.5667860153528803;0.15995944474747303;0.45125572313954443;0.00876076980003404;0.6586834185701429;0.11652277083432971;0.6747082797530024;-0.06443650408405333;0.5867176850603286;0.07007201301616164
A;-10.0;0.4042532836069146;0.06401432598063472;0.30192778337905946;0.030228293424323205;0.3400079699053826;0.039260147426599445;0.5567557681325628;0.15901940779429546;0.45013591702454114;0.006347221706244355;0.6410232532662619;0.1102978904762133;0.6586730966140621;-0.0702105171670464;0.56677672240391;0.06340812594993564
A;-9.9;0.39513469204493923;0.06207509199342809;0.29449557045078656;0.03091903916521943;0.33441192404817244;0.0386052296985504;0.5458685476034013;0.15791932381705664;0.4482965328425781;0.0038344349267713795;0.6222564262074526;0.10373542757101673;0.6422075745223965;-0.0756358378122659;0.5461990250620676;0.0567520508496179
A;-9.8;0.3853245879127698;0.06019315494894606;0.28632974112265774;0.03161761992693801;0.32827422848081156;0.0379471508428022;0.5342234294024557;0.15663720565003558;0.4458269940518029;0.0012391956332482579;0.6024066668917092;0.09677818913407754;0.6254753099883907;-0.08067823121555051;0.5252683941443959;0.05017159763991
A;-9.7;0.3748915498256604;0.05838669004260311;0.27752442163783897;0.03234738719951835;0.32169695477680094;0.03730939799227251;0.5219175336495621;0.15514963877462007;0.4428316473852565;-0.0014215068568219635;0.5814970625156684;0.08936141687299504;0.6086734582000892;-0.08528958376467521;0.5043061169684986;0.04374788084784956
A;-9.6;0.3638219079127829;0.056645583979841874;0.26828731291753627;0.03308982374637903;0.314789994307354;0.03671431660635882;0.5092277645577052;0.1533387470588714;0.43944528298785634;-0.004107319535842535;0.5593872717551465;0.08125758141628214;0.5919030192630041;-0.08955575887331335;0.48376019515430535;0.03752288916764207
A;-9.5;0.35210282200743137;0.05495512826814064;0.25881331240749716;0.03381860853335095;0.3076381490582527;0.03617568697885787;0.4964212488718136;0.1511067242834525;0.4357701489328605;-0.006780871573029756;0.5359818810291954;0.07228870391335973;0.5752056170803512;-0.09357950430951334;0.46398048636783784;0.03151402975877335
A;-9.4;0.3397068894619757;0.05330516943894281;0.2493281725177301;0.03452110742607406;0.3003759621207287;0.03572379494870148;0.4837884095572704;0.14830799028162134;0.43197966247456954;-0.009396838742009805;0.511073147950686;0.06216234990614322;0.5587276726086918;-0.09744129229795462;0.4455109800079331;0.025782460089730536
A;-9.3;0.3266196659790346;0.05168627262380632;0.24005206816433056;0.03518351737283165;0.293132679576928;0.03538612342704184;0.47161475746690407;0.14481005103332034;0.4282358695322621;-0.011912052918592764;0.48448981789532786;0.05061686555859857;0.5426055661526263;-0.10122143941800665;0.42886196834091805;0.02038417530920067
A;-9.2;0.31294717900548186;0.05010782114073109;0.23099549936195896;0.03581301049776542;0.285912899240401;0.035152554397749114;0.45990222524499913;0.14070167251192078;0.42450883189365385;-0.014328798061622905;0.45649677810472467;0.03784180808341442;0.5268389608656809;-0.10489439038381576;0.4139305129869335;0.01531802805237864
A;-9.1;0.29881739865316703;0.04858422343245827;0.22210254174677235;0.03642681009365045;0.2786888391438751;0.035004729486889374;0.4485571662064256;0.13612684686029253;0.4207243331864312;-0.016661878221022164;0.42744958190329063;0.02413331326874868;0.5114003619687009;-0.10839643930966147;0.40045420941008736;0.0105723329898407
A;-9.0;0.2843932645747209;0.04712991529525823;0.21336209444729715;0.03702608112792394;0.27144454680170327;0.03492192018030238;0.43756873445393296;0.13122654483781582;0.41680345178792244;-0.018922618207747988;0.3977656376956582;0.009805968364483775;0.49625525815627247;-0.1116998722306608;0.3882034972130253;0.006127063479966277
A;-8.9;0.2698543126312707;0.04576129834681453;0.20473506311466316;0.03761447177167199;0.2641465548702584;0.03487779528360768;0.4268875997539272;0.12617248148170046;0.4126408070231271;-0.02112858381162397;0.3679234993763201;-0.004762461120128014;0.48134735938964646;-0.1147644868045603;0.37686100394630806;0.0019529257740182326
A;-8.8;0.2552486142061383;0.044481471224559144;0.19621272515671961;0.03820616081542294;0.2568034788356499;0.03486877453993564;0.41647598560902566;0.12101724295339067;0.4082385243578326;-0.02327898782922766;0.3380511720989756;-0.01947112864951639;0.46669005541976816;-0.11755640931712286;0.3663620821249083;-0.0019429701912851982
A;-8.7;0.2406098601786688;0.04329143416167547;0.18781199481716548;0.038811857138215444;0.2494421987928206;0.034896762035426576;0.4063336068967587;0.11578212502632823;0.40362558115816327;-0.025367323873469516;0.3082169592608772;-0.03428068321305178;0.452319486223836;-0.1200552328497615;0.3567259416799171;-0.005545190071925429
A;-8.6;0.22600800340516614;0.04219703245330386;0.1794815447630711;0.039453692020078535;0.2420449214478495;0.034949927918638934;0.39635445914951006;0.11056867305620166;0.39876764891506156;-0.027402416282958697;0.2786362849961965;-0.04899676591622426;0.43821765928714385;-0.12220344582374487;0.34775534166612765;-0.00885853681989325
A;-8.5;0.21150114740441595;0.041202586113969986;0.17116892729587896;0.040153351815636285;0.23459537574791867;0.03501786124862605;0.38643133177091826;0.10546823576050723;0.3936369974973033;-0.029392065673754075;0.249494703686433;-0.0634464489292863;0.4243686859518734;-0.1239455751449654;0.3392655431292315;-0.011887012591513313
A;-8.4;0.19726037805544472;0.04032232711227479;0.16291063816381612;0.04090092681383428;0.22711407574729847;0.03508759885843382;0.3766351358182085;0.10057842074727574;0.38819325233650304;-0.0313402991454943;0.2211642952186561;-0.07738538319067034;0.41078524342982226;-0.12528095762054114;0.33116031309764793;-0.014638526595544502
A;-8.3;0.18350741783691937;0.039575003809629195;0.15476077509812303;0.04168009301360254;0.21962322250526256;0.03514132059130759;0.3670717841115998;0.09602293757625713;0.38237621829287427;-0.03325370362382607;0.1941262055295998;-0.09050084221689825;0.39747460542676416;-0.12621853157612684;0.3233182121004017;-0.01712742550485767
A;-8.2;0.1703403256958449;0.03896538995266674;0.14676762354380113;0.04247618118411722;0.21215750671710865;0.03517574068481366;0.3578313290738251;0.09183084453011059;0.3761898475559686;-0.035126929244544414;0.16856687960990824;-0.10269200818925772;0.38446415787796706;-0.12677769213513912;0.31575193754871655;-0.019354447888134535
A;-8.1;0.15786423911062997;0.038498779818501916;0.1389869753670201;0.043270675695584515;0.20475561386747287;0.03518783319646879;0.3490209251512155;0.08802744498551607;0.3696387057463024;-0.03695419474464501;0.14467941447033095;-0.11385929344158985;0.37178493061534335;-0.1269845669849623;0.30848654393951946;-0.021320982146609505
A;-8.0;0.14627161484327011;0.03818956049206612;0.13143967306332272;0.04406447719651574;0.19741598796435866;0.03515562259179994;0.3406614916404518;0.08476016567395828;0.36265477148595515;-0.0387467465127358;0.12292538623080906;-0.12367260195925978;0.3594105235188043;-0.12682594241748113;0.30131407521718323;-0.02304767830051342
A;-7.9;0.1357132101759131;0.03804690388241383;0.12413159533949525;0.04486455246942178;0.1901297302138687;0.03505878362964232;0.33273852658700953;0.0821625425599477;0.3551806611038639;-0.04051470266690416;0.10368827881736031;-0.13184536647138212;0.3473038966941493;-0.12628378371031346;0.2940227608128545;-0.02455538061211196
A;-7.8;0.12641841401106824;0.03809054592460015;0.11708156107665513;0.045663896446193064;0.18289645490644446;0.03487321684536049;0.32529136160675165;0.08039429036041268;0.34713130469992315;-0.04227326583255575;0.08749623616808977;-0.1380039943692779;0.33544507067489615;-0.1253479046255901;0.28638475576297573;-0.025868891746186548
A;-7.7;0.11859496441119255;0.038336820464396126;0.11030983160221908;0.04645801190791232;0.17571413573210393;0.03457572784739149;0.3183510963205549;0.07960559875092454;0.3384299363488772;-0.04403610792209989;0.07483520297821622;-0.14180287625550303;0.3238071984619757;-0.12401094247457678;0.2781808609990204;-0.02701363702200124
A;-7.6;0.11214512404081134;0.03876596066094251;0.10382083284442611;0.047244882876921857;0.16860225530161088;0.034175888415388656;0.31190855366369874;0.07972209369924732;0.3291463284692764;-0.045787661962826576;0.06548336652445474;-0.14340012833685511;0.3123912271951004;-0.12229620675451791;0.2694918307304004;-0.02798862139495714
A;-7.5;0.10689269672724677;0.03935042986425863;0.09760785268589345;0.048017959857514114;0.16158847437637291;0.033693462413827646;0.30594997543469127;0.08060087426246798;0.3193878009856963;-0.04750555069753304;0.05902183255772009;-0.14309578843168125;0.30121583902529236;-0.12023629245872058;0.26048689022522;-0.028785505797172997
A;-7.4;0.10266329264552354;0.04005737348313687;0.09169494619454266;0.04878846100915535;0.1546887541268056;0.033140845599684;0.30044249031931614;0.08213874422989376;0.30925873893477274;-0.049166928319765546;0.05508653102321759;-0.14114608919699934;0.29025461078715686;-0.11786522327169813;0.25128809589545575;-0.02940342481974259
A;-7.3;0.09923698254684865;0.040848533920074814;0.08610160985704862;0.04956803125438913;0.14792041119850907;0.032534869109875686;0.29534401023698287;0.08420048663098267;0.2988833134035378;-0.050745226284181655;0.05320947723960323;-0.13787958652243826;0.2794828638432181;-0.11522147922834769;0.24205562589878404;-0.02983869998140226
A;-7.2;0.0965452185225999;0.04171314720870889;0.0808001177170512;0.050339931262365134;0.14130281963575442;0.03188641325773567;0.2906485548187483;0.08670556791960471;0.28830981567957537;-0.05223281767791299;0.053192311992731334;-0.13343560505654928;0.26892691494160204;-0.11232470868756117;0.23285200410739293;-0.030094127139082258
A;-7.1;0.09455960722677759;0.04264504355242593;0.07576907232382801;0.051088040974595295;0.13485184293494612;0.031201632863098183;0.28635548001309274;0.08960437149593314;0.2775670858010866;-0.05362643845976933;0.05492987356415524;-0.12788795088323068;0.2586062106452829;-0.10919245598380733;0.22369957055376766;-0.030177507228281553
A;-7.0;0.09314082830781523;0.04362583043526236;0.07096441707053458;0.05179204877981913;0.1285896322316944;0.03049931369317882;0.28244803735294965;0.09275972426973755;0.2667327121621721;-0.05491263949405756;0.058055854344849944;-0.12149233998323283;0.24855727635148872;-0.10585093433352455;0.21472449419561634;-0.03008564170125068
A;-6.9;0.09215879653192616;0.04463905751236652;0.0663388428078644;0.052430402334091575;0.12253729101433208;0.029797659033238943;0.2789088467120262;0.096038780071386;0.2558783778579965;-0.05607995744765226;0.062219789629890165;-0.11449272386525733;0.2388183727957207;-0.10232513177970048;0.20604363948766213;-0.02981676211259092
A;-6.8;0.09148725174613759;0.045654267709187124;0.061951690002884696;0.053024650628819;0.11669959447072387;0.029098994300991166;0.2757079887978602;0.09939478567273508;0.24508371652296113;-0.0571116618488805;0.06719177304446777;-0.10705238152652075;0.22932568020079902;-0.09865520828303431;0.1977128149780647;-0.029383481051087346
A;-6.7;0.09096942659728668;0.04663257778148555;0.057888712976669865;0.05360886264323206;0.11107665196072602;0.028403720402691235;0.2728067753706611;0.10278492854288968;0.23444375474609735;-0.05798612332579367;0.07270986312917938;-0.09935681476785119;0.2199855253181573;-0.09488871652845532;0.1897941373833394;-0.02879973437929602
A;-6.6;0.09055539246138977;0.04755693881635459;0.05419337727081874;0.05419846315636079;0.10566861516213777;0.02770880121318875;0.2701764839047396;0.10620534960492267;0.22399708307136912;-0.05869825701582698;0.07869289158427595;-0.09146143077943503;0.21074480858909794;-0.09105344876356014;0.1822727380928324;-0.028085255151754196
A;-6.5;0.0901992456525047;0.048409606243597025;0.050920744871011614;0.054813529021058294;0.10047306836710135;0.027009161748811295;0.2677869803465569;0.1096637269098415;0.21378064010796471;-0.05924332866182702;0.08507930046558831;-0.08340841907566099;0.2015397895933475;-0.08717857162505283;0.1751244320591585;-0.027261838371272856
A;-6.4;0.08970582552862716;0.0491525847455101;0.04809625628392222;0.05546864603809354;0.0954923127456837;0.026314214538041725;0.26559387814319635;0.11305817797300133;0.2038954851749306;-0.059598828909864565;0.09148355993369561;-0.07546212623311521;0.19231750534560899;-0.0833071145833646;0.16845206853764338;-0.02633406948624198
A;-6.3;0.088891110971554;0.04975346149111992;0.04571267691577319;0.056167150771022634;0.09072958047388013;0.02563592123571823;0.2635516896388719;0.11627473599946847;0.19443168984622794;-0.05974589626804594;0.09751739325556086;-0.06788484190881294;0.1830496913020987;-0.07947495833765927;0.16235441731069677;-0.025304401175861732
A;-6.2;0.08754458758492234;0.05016880544872038;0.04383514301352509;0.05693762127520596;0.0861844525277391;0.02498118117649817;0.2616159579612187;0.11922315345689372;0.18550204978554596;-0.05965935265122546;0.10278781822228567;-0.060952250607173575;0.17365746350290312;-0.07573387184217673;0.15694672613515337;-0.024179772960974913
A;-6.1;0.08546568004134691;0.05035828270340481;0.04251088265969116;0.05780333100701185;0.08185512083568369;0.02435729676557763;0.2597407484759664;0.12181217152517143;0.17721039915388914;-0.0593161802763813;0.10691458796929387;-0.05492766435274765;0.16407267490103017;-0.07213073544993165;0.15233416391699173;-0.022965925696840084
A;-6.0;0.08270452301099596;0.050333940685563405;0.04167290697253012;0.05874201443955496;0.07773948378318352;0.023764231093826638;0.25789361622533313;0.12404024545626213;0.16952573398356563;-0.05873308329804061;0.10993769923579366;-0.04976700357188846;0.15432703839825024;-0.06865994838855194;0.14843070235192712;-0.021681631974607332
A;-5.9;0.07938834944814133;0.05012222353939677;0.04124708750846029;0.05972588537291035;0.07383512545061066;0.023197850184381252;0.256050184090606;0.12594489359976113;0.1623803517093556;-0.05793829207184231;0.11203823878894204;-0.04532933200789313;0.14446995761764336;-0.06530471564875917;0.14509871514616712;-0.020351467960947403
A;-5.8;0.07560200011753793;0.04974623301107961;0.04108725235101751;0.06070881002871875;0.0701356954026977;0.022660473079504584;0.2541734648113554;0.12751463745858782;0.1557100925397883;-0.056955132138030606;0.11329834975096587;-0.041525327523695754;0.13457834048000183;-0.062039393008854304;0.14221365580875833;-0.01898749933607563
A;-5.7;0.07146499926761152;0.04923669705828537;0.0410297052160713;0.061638099195169715;0.06663423254544654;0.022153498378731484;0.25222775290348665;0.128749985925658;0.1494311496294909;-0.0558127853938899;0.11385728085097746;-0.0382235374298292;0.12474383625916197;-0.058830503297063075;0.13962451173658863;-0.01760329868844855
A;-5.6;0.06703618857740601;0.04860330875843211;0.041089545962284646;0.06251544571697121;0.06332792087092898;0.021671735117603674;0.2501971669479417;0.12968445763274095;0.14352195022603098;-0.05452756077370147;0.11380166903775857;-0.03536732083450267;0.11496871227779693;-0.055685382108705994;0.13727283134663715;-0.016221002334599388
A;-5.5;0.062342803698181015;0.047849054994859586;0.04129611927360788;0.06334863916121591;0.060212493490727326;0.021210704337267572;0.24806637539528253;0.13034115670696322;0.1379768294630921;-0.053110257284368245;0.11316965994871708;-0.032935731540287394;0.1052441980709502;-0.05261735114956956;0.13512751686236157;-0.014858788424296346
A;-5.4;0.05750023650835523;0.04699564652552901;0.04164807969588402;0.06413254895081444;0.05728489550894622;0.020762901498770248;0.2458189214706028;0.13077877634550283;0.1327444121267014;-0.05158744782510816;0.11214157406022363;-0.030804824529035768;0.0955863795648133;-0.04962336741179563;0.13308273328246578;-0.013545226746608796
A;-5.3;0.05262104854805649;0.046063675599832266;0.04215679714461995;0.06486589011387611;0.05454176111740239;0.020320328515898822;0.24344224729983388;0.13105892261751806;0.12777657838194578;-0.04998470341106298;0.11089842481324119;-0.028853453856501732;0.08600754681809164;-0.046702671994436784;0.13104256166209893;-0.012307816773884109
A;-5.2;0.04773864420522855;0.045067452609016456;0.042658595484184936;0.06550258569314948;0.051968043220778526;0.01988782351124385;0.24089925837723136;0.13114282918581055;0.12302292532658221;-0.04831617682820699;0.10944432223460554;-0.027040189511857937;0.07658625528891028;-0.04382955564201296;0.12892133737659606;-0.011142612833252116
A;-5.1;0.042881079616819306;0.04402419974312721;0.04291995637649304;0.06597765543617662;0.049545250409565256;0.019473947660264557;0.2381402342741925;0.1309660483279882;0.11842032022479998;-0.04659696008448044;0.10775385207295685;-0.02532708978520004;0.0674273545927937;-0.040965397052829644;0.12661196190483714;-0.010039713739972353
A;-5.0;0.03804345583854207;0.04293738926989654;0.04285110423055549;0.06626722898486026;0.047259497256458616;0.01908231435014507;0.2351459479880269;0.13049267163398603;0.11395000437086011;-0.04483225664969481;0.10578886802081966;-0.023720355133419968;0.05858218442150198;-0.0381020236811036;0.12409648906745119;-0.008990365017167712
A;-4.9;0.033211883522723085;0.04180956080098319;0.042347506842093985;0.0663439158065664;0.04509524478178761;0.018717700859467;0.2318971344744032;0.12967744600988773;0.10959356780300844;-0.043025489441470555;0.103494597296093;-0.022234317061262665;0.05010836737668667;-0.0352289142778055;0.12136266481884128;-0.007981045938980857
A;-4.8;0.02845886019470356;0.04066552110049848;0.0412245602628909;0.06615515823407048;0.04303879435134661;0.018383938755620832;0.22834163919910644;0.1284976820448902;0.10527734676539069;-0.04120185257655962;0.10092159615767793;-0.020789501750369643;0.0420849562441985;-0.03231153130642106;0.11826858867616963;-0.007020779409849784
A;-4.7;0.02386550354168726;0.03952959925703681;0.039349877699804914;0.06566247828654159;0.041079723971943594;0.018082091025963365;0.22443443366633709;0.12695208489819243;0.10093472579908536;-0.03938781070234754;0.09814492509552641;-0.019302273573280182;0.03457010232938185;-0.029324208208169722;0.11468231121550332;-0.006125663841037812
A;-4.6;0.01950555963025913;0.03842900440185204;0.03648464275184882;0.06479850527609265;0.039199318160871854;0.017818198527049134;0.2201256505035456;0.12500209103842486;0.09647885641644294;-0.0376068948539352;0.09521676178185512;-0.017680296959468267;0.027670178402663836;-0.026220067469466812;0.11045703027755671;-0.0052915671654389235
A;-4.5;0.015448825641925623;0.037389697266418054;0.03241293508608578;0.06350250317842931;0.03738073039594525;0.0175975861801021;0.21536577453559858;0.1226146117422171;0.0918294194351752;-0.035882642089337224;0.09218270520304506;-0.01584095384340345;0.021478560592644858;-0.02295707128561908;0.10545232859337261;-0.004518183133811596
A;-4.4;0.011686250266860654;0.036404960716183155;0.027266601377662347;0.06181197238051439;0.035621029052865794;0.01741444669572445;0.21017784328277322;0.1198219546230539;0.08701502275467021;-0.03421575071251759;0.08905000745786174;-0.013814640729087113;0.015962758087631812;-0.019567822818887137;0.09974409152346375;-0.0038109391596000686
A;-4.3;0.008185165523364901;0.03545859041041943;0.021260321493503653;0.059787904697790495;0.03391843094012259;0.017260371084638848;0.2046134662299881;0.11666968299886715;0.08209180498859858;-0.03259761687242424;0.0858215424340032;-0.011656774618334476;0.011066850951282792;-0.01610192381149389;0.09347957749752478;-0.003167204785457539
A;-4.2;0.004916440419686197;0.034538611053134716;0.01461248616613009;0.05749313486555785;0.03227899489362329;0.017127174591896832;0.19868602618589648;0.11320814398620094;0.07711628987167352;-0.03103058284561655;0.08245940648129313;-0.009446803239801183;0.006700715141157776;-0.012612436811064498;0.08674643664958293;-0.0026142632453663717
A;-4.1;0.001841225277388503;0.03362871085231944;0.007591964349463964;0.05500472411182056;0.030710969895970663;0.017005033495774313;0.19242043539697917;0.10949817838065612;0.0721599999710616;-0.029513832060414913;0.07892356927484379;-0.007278341695481805;0.002756362679382729;-0.009162669975852467;0.07966333875867004;-0.002179981126836733
A;-4.0;-0.0010428681434504483;0.03272399699920037;0.0002735575457286643;0.05234415789954916;0.029202408696189508;0.016889477728545543;0.18586647698219672;0.10556026354752768;0.06723433114463084;-0.02804032465132522;0.07526072562095631;-0.00514506663376757;-0.0007587612515407294;-0.005768471571730771;0.07232817586272144;-0.00183826006835916
A;-3.9;-0.0037316721084490467;0.03182386358999878;-0.007318767106582413;0.04951901129538161;0.02773989191839732;0.016777877023608667;0.17906147239535386;0.10140381589746195;0.062336947856071134;-0.026605870742924864;0.07151162087062435;-0.003031688562403989;-0.0038245413461202027;-0.00243502214162028;0.06480680715176668;-0.0015625279497812894
A;-3.8;-0.006238910941727127;0.030916293427875274;-0.015029157431691864;0.04657304379350169;0.026314031735850563;0.016663175622618098;0.17208308114423865;0.09706660512502019;0.057501653306966105;-0.02519701612198233;0.06773749040716259;-0.0009435521392828772;-0.006449911694594412;0.0008067187327380765;0.05725819144433686;-0.0013224313784662156
A;-3.7;-0.008576875652799743;0.029990184541786036;-0.0227172484651339;0.04354582003929153;0.02491412399911397;0.016538732842056092;0.16500993513035844;0.09258340215115934;0.05275790333093511;-0.023799708782529905;0.06400262133127477;0.0011195985403829045;-0.008638562504083236;0.003929706801347521;0.04983782731430253;-0.0010836822500105425
A;-3.6;-0.010778438992387507;0.029040049450772543;-0.030238191937631775;0.04048161633987313;0.023549584964854375;0.016400133040805898;0.15781626032445928;0.08798467200683091;0.048149083248906877;-0.022423683049227705;0.06020900793829753;0.003059063745287416;-0.010490096753097866;0.00689466468601907;0.04256117332790499;-0.0008868001775074186
A;-3.5;-0.012885030568762446;0.02805929454221534;-0.037404612778765944;0.037437244654602964;0.022238054168511212;0.01624237583506627;0.15045494381605629;0.08330926356525592;0.04373290118157769;-0.021084458038270526;0.05621844535833942;0.004741740690432206;-0.012140860044180357;0.00965075537801141;0.035424906068588946;-0.0007967553483236856
A;-3.4;-0.014912451381768221;0.02704991413801494;-0.044176332648006245;0.0344279596281547;0.020980299298116734;0.016063555458931233;0.14289763548363865;0.07856887050423622;0.039520580280468565;-0.01979146736930204;0.05195796066555536;0.006110462084331747;-0.01365205286626292;0.01218331315926946;0.028407173253176765;-0.000835163889985252
A;-3.3;-0.016878748876022698;0.02601476626714394;-0.05051877719948994;0.03146786510814792;0.01977969129050905;0.015862359328478348;0.13510494242445859;0.07377312376393075;0.03552417519198947;-0.01855639535630793;0.04733596424162245;0.007098106583632635;-0.015093965521961294;0.014478008880802307;0.021468850547680773;-0.0010306820219790624
A;-3.2;-0.018809965929360573;0.024942788357648737;-0.05619368347518616;0.02862540811308545;0.01864938481128675;0.015631344163983485;0.1270907657184548;0.06897860655293653;0.03180474829565938;-0.01738423634735753;0.042314103399226255;0.007620982823232314;-0.016564234170023617;0.016481226533365145;0.014692822677326411;-0.0014199818810322062
A;-3.1;-0.02072027861798631;0.02382337925957323;-0.060978979609179085;0.02596350854569085;0.017596445473763822;0.015362732997243;0.11889513018332742;0.06424247035296005;0.028413053673931543;-0.016274788822528308;0.036906509984289126;0.007631891896425325;-0.018129606915050722;0.018146737019089088;0.008188192185537346;-0.0020192427130893975
A;-3.0;-0.02265404167695273;0.02264402097397067;-0.0646200738972098;0.02355646437764669;0.016644425371143967;0.015050276477314384;0.1105050923523141;0.059618154893555264;0.02542666935362803;-0.015236974166196404;0.031005385218051185;0.0069996223342359;-0.019926760998203896;0.019413961118175393;0.002009289456974983;-0.0028869928059442607
A;-2.9;-0.024644485290533424;0.021393262672107838;-0.06687102611564555;0.02147526435062197;0.015814949975816006;0.014687687352102685;0.10192103027499222;0.055160771455920354;0.02291649842002741;-0.014278201230446541;0.024537343788692212;0.005616920992193242;-0.022073020573475155;0.020226830032198606;-0.003780368275345225;-0.004073186975296128
A;-2.8;-0.02665761712611392;0.02008070423393349;-0.06783115524155559;0.019693276080730904;0.01508533962920211;0.014274580714989327;0.09319134797793005;0.050867106625300806;0.02083720752790441;-0.013391569240699397;0.017605973699093003;0.003570613276405954;-0.02450564656449572;0.02061470481084271;-0.009158375309713307;-0.005522240761480848
A;-2.7;-0.028651943539163227;0.018721768552993012;-0.06770912543379914;0.01815390927382854;0.014425476604174037;0.013813706884173271;0.08436074569744711;0.04670951108744359;0.01911677794739397;-0.012567660857824237;0.010319339977034492;0.0009762341725210177;-0.027128477850589583;0.020631251606902268;-0.014136650344655166;-0.007157597702903029
A;-2.6;-0.03054238799832376;0.017330263220127762;-0.06662401731133105;0.01682074808395484;0.013803496241301616;0.013303646427630156;0.07553646248949342;0.04269695713875632;0.017682231581499508;-0.011794270509396299;0.0029391050635476645;-0.0019740675714501332;-0.029793984497500592;0.02032105598049938;-0.01864565084387415;-0.008889425586240757
A;-2.5;-0.032234741261484956;0.015922818579841902;-0.06474353711539482;0.015643658055449094;0.013181271909196823;0.012743802303310403;0.06683322050804996;0.038830359304600215;0.01644407178992857;-0.011056889591444019;-0.004247028018530941;-0.005059933111171366;-0.03232952676154621;0.01974099836498766;-0.02262140794895373;-0.010612733310467193
A;-2.4;-0.033733101037539015;0.014506687500785986;-0.062184513720042744;0.014593390490699854;0.01255780747473878;0.01213880908211884;0.05825146364133893;0.035083700415468266;0.015386180273768701;-0.010352191454703785;-0.01128000787327954;-0.008282602748833634;-0.03472929141566494;0.01891778397813404;-0.026102584978538346;-0.012302224372954279
A;-2.3;-0.0350447852751703;0.013086286256408286;-0.05901021585143429;0.013654914829593245;0.011942157604377002;0.011492985780495957;0.049790293643598105;0.03144083102421269;0.014510951805442929;-0.00967908603473866;-0.018213318440919668;-0.011663841329096591;-0.03700504756653977;0.017866536885366102;-0.029120030745796832;-0.013948659451162512
A;-2.2;-0.03617505394583276;0.011673408559543574;-0.055435735683980525;0.012773477611067285;0.011317826122336783;0.01081206320013628;0.04144313463907068;0.027855760219215764;0.013771375917333017;-0.009031093605861074;-0.025085551011235108;-0.015179158085036892;-0.03913173155563454;0.01663457851493;-0.031741188382103935;-0.015504820860158558
A;-2.1;-0.037133091437613786;0.010278984034883365;-0.051668075497516064;0.011896458643213315;0.010674064946275763;0.010102570510980513;0.0331990361647847;0.024281332302531933;0.013128402210258017;-0.008402419314856857;-0.031952764790458055;-0.018817226148210908;-0.041091727671592526;0.015267104737761272;-0.034038390208038116;-0.016930058755937005
A;-2.0;-0.03780515189773048;0.008912804062653379;-0.047705599346708816;0.011016193833418342;0.009999517408910918;0.009361843190298202;0.025199617776520356;0.020760021634115944;0.012535991268759261;-0.007783938723182615;-0.03847471724426077;-0.022363171450119568;-0.04272336931004794;0.013790452473548598;-0.03589768194634502;-0.018155340289988914
A;-1.9;-0.038041228071234556;0.007586338331046605;-0.04352543568556655;0.010128245321574525;0.009270332919651736;0.00858376821611273;0.01763076005763864;0.01735524809763911;0.01192718982612817;-0.007163722383678461;-0.04418115158315716;-0.025523420263084295;-0.043813770152852705;0.012233852134990286;-0.03715645417020319;-0.019090114133853586
A;-1.8;-0.03775417959291971;0.006303272946208693;-0.03905605767024678;0.009244121765845215;0.00850572715680542;0.00776884607527073;0.01060873314925459;0.014108212247845753;0.011305683826698498;-0.0065368407788390925;-0.04883694728861787;-0.028168098700932065;-0.04425392968689712;0.01060494666784173;-0.037715918523133496;-0.019704294450038476
A;-1.7;-0.03684522766500642;0.005066688201154079;-0.03419975542485609;0.008381155324395984;0.007726713938360774;0.006916826350822802;0.004264034292205565;0.011069605344323108;0.010676761152225822;-0.005898465714249568;-0.052169568886949236;-0.030149201756275668;-0.043922248363426064;0.008908307732278686;-0.03746054582558056;-0.01996818176503419
A;-1.6;-0.03523039232067049;0.0038900924913001234;-0.029077074041589768;0.007504064152643153;0.006885658119490046;0.006023073239720844;-0.0012949950810305921;0.008257238699659997;0.009946524210139529;-0.005235512311534407;-0.05387907869519415;-0.031245493919975553;-0.04267521561562049;0.007190380010309028;-0.036322154277461216;-0.019787469394746515
A;-1.5;-0.03286339737526589;0.00278587794423224;-0.02384784971688969;0.00657026744480671;0.00593756557697489;0.005085216716789631;-0.006002713289593231;0.005667097507366048;0.009029405939676494;-0.004535901072552306;-0.053781519853179915;-0.03130051858999727;-0.040416915541424014;0.005498788651918218;-0.03427926025533612;-0.0190801788183856
A;-1.4;-0.029618490567902;0.0017681289911219977;-0.018590949160561365;0.005551625607850497;0.004834697807304167;0.004096878231736767;-0.009706575174591947;0.0033393940989254745;0.00782263349366552;-0.003786406074507198;-0.05144850532799694;-0.030018895952437008;-0.03694903289501461;0.003878963806267066;-0.031223193622022194;-0.017744458494448848
A;-1.3;-0.025394556276069125;0.0008497694817553025;-0.013402569369890038;0.004417880979292299;0.0035258002598723692;0.0030517991187917204;-0.012279699120599119;0.0013046342063987026;0.0062243606812764085;-0.0029742725148214078;-0.04651440793508588;-0.02714039730024309;-0.03210566210121213;0.0023752411115278704;-0.027069453810962152;-0.015684885970827955
A;-1.2;-0.020242235110289997;2.5226635621322657e-05;-0.00826810039611292;0.0031753470312185783;0.0020643747269879498;0.001960089803347387;-0.013758078835600429;-0.00046319642997083577;0.004305840477226042;-0.002101590460933167;-0.03918390011161721;-0.02280261845193854;-0.025966655959383633;0.0009820125532051804;-0.021876750724851846;-0.01294485156156433
A;-1.1;-0.014232578909133764;-0.0007169107405768926;-0.0031037932351303255;0.0018480379288119408;0.000541415341611895;0.0008365252158668568;-0.014201604976262772;-0.001993473824158265;0.002192548905730618;-0.0011759400039892398;-0.029764708919996163;-0.017226322200317723;-0.018655156898547354;-0.0003244980766741179;-0.01572536161421656;-0.00961143688841569
A;-1.0;-0.007523570543144231;-0.0013859571172893936;0.0020160961599104965;0.0004302848464954323;-0.0010141525514448801;-0.0003096115335470273;-0.013756625931589994;-0.003354013338726869;-5.044567381595755e-05;-0.00020030514358282403;-0.018726171956787496;-0.010694122641269344;-0.01039126291511172;-0.0015521407006087173;-0.008773606380485965;-0.005746225972662333
A;-0.9;-0.0002961135164358808;-0.0019939218824518434;0.007030586207938505;-0.0010789292086226254;-0.0025587821334021044;-0.0014666666156450958;-0.012594558548956414;-0.00462165547228599;-0.002333835724737554;0.0008202184054031392;-0.00662169426565562;-0.0035464581060211664;-0.0014309212967376084;-0.002715502988108298;-0.001202149081409587;-0.001430947715458153
A;-0.8;0.007462521426040425;-0.0025480321053521493;0.01204898950829758;-0.0026553340341575193;-0.004025621938470891;-0.0026254781961796425;-0.010693031484217741;-0.005786498076929991;-0.004585180565925384;0.00187898557422983;0.006524212020522668;0.004178350721663504;0.008223017221006046;-0.003830270431388172;0.006972339356830837;0.003278298903757304
A;-0.7;0.015771795882130846;-0.00305368863394051;0.017153736769932593;-0.004280736731027801;-0.005373748986123417;-0.003780759920527288;-0.008022539553884656;-0.006832869362924487;-0.006766889094450335;0.0029708218521857788;0.02074761830569738;0.01249086932788468;0.018583326177675108;-0.004906356508506349;0.01573811895356858;0.0083429852613012
A;-0.6;0.024639439617809344;-0.0035218265686314254;0.022514476541369177;-0.005917454725324234;-0.006489863636190307;-0.004916967331910271;-0.0045680628564657155;-0.007756497050527944;-0.008745351230503573;0.004086067997889131;0.03594083086149391;0.021278973229806653;0.029629683089515968;-0.0059707701220084175;0.02507706241822394;0.013674060429930995
A;-0.5;0.03407774796607477;-0.003963487183668235;0.02830396293013493;-0.007527106638540282;-0.007266617128440345;-0.006019736838096534;-0.00031149715396061595;-0.00854864638898567;-0.010395862268126166;0.00521442762606128;0.05202191960301139;0.030448662425970996;0.04134825901401218;-0.0070511462202844655;0.03497146573149568;0.019182906559328777
A;-0.4;0.04386656795457;-0.004386506250163791;0.03432059030246215;-0.0091375692264819;-0.0077634490279621104;-0.0070914000706707725;0.004536939287113739;-0.009289994010608371;-0.011750435886900945;0.006355772380436164;0.06849060531654771;0.039740247920048155;0.05345492588814427;-0.008143805885577393;0.04520584051199528;0.024839071114236194
A;-0.3;0.053716151028888603;-0.004798531220092883;0.040270697884485784;-0.01079281809510313;-0.00806474507399102;-0.008135516279452304;0.009698998055377217;-0.0100935508399278;-0.012855753332367215;0.007513010733626757;0.08467850448231928;0.048806512051695616;0.06558165656087178;-0.00923778918033058;0.05551163566967521;0.03061954516517254
A;-0.2;0.0634494083004764;-0.0052056621118588;0.04596113615176112;-0.012520770483421373;-0.00826273361068175;-0.00916067422983069;0.01500243435577886;-0.011012506093001306;-0.013797931816300846;0.008684434226111648;0.10026962303907538;0.05751490555037164;0.07750624111322901;-0.0103273053110442;0.06569331029667858;0.036509745761466594
A;-0.1;0.0728634896697784;-0.0056136752710926885;0.05115691159125291;-0.014356505093675587;-0.008472089169334396;-0.010178055142882059;0.0202484650328838;-0.012108550948225716;-0.014685254188405494;0.009869156385873268;0.11490905843983423;0.06572019810517515;0.08897703167182325;-0.01140335971740214;0.07553275729352737;0.042501772260231246
A;0.0;0.08178860092388085;-0.006030926775222767;0.05575681101891483;-0.016311872604401145;-0.008659899837475393;-0.011177251591071524;0.02527737538495245;-0.01346278623688546;-0.015443175051370162;0.011067579746864453;0.12808092163028473;0.07310811107186943;0.0997689331085736;-0.012466356061278105;0.0848802555404573;0.04854196729074417
A;0.1;0.09012338403384312;-0.006465746773269387;0.05975101000509042;-0.01838366539566927;-0.008753763218106059;-0.012144067973366646;0.029995566103787397;-0.01513107419586568;-0.01596393118097339;0.01227792061164834;0.13940507373959532;0.07942641968781694;0.10974074118458388;-0.013522198968271226;0.09364312787423401;0.05456704627314757
A;0.2;0.09760634660475809;-0.006927346355725561;0.06292909464798147;-0.020600003737963668;-0.008778261465948844;-0.013074595856339855;0.03414920680522471;-0.01722373953848777;-0.01622200563802778;0.0135015535830032;0.14819545099874576;0.08428367287726801;0.11855406552839387;-0.014567639498885399;0.10159338435702914;0.06052990306656819
A;0.3;0.10401978943819046;-0.007423824909778887;0.06512606337448634;-0.022982728404100428;-0.008732437726060027;-0.013962125064342246;0.037527483871155454;-0.01983864413237635;-0.01617013470525741;0.014739913078411604;0.153846721279971;0.08732452652151124;0.12592725943910343;-0.01559918139152039;0.10854452547552285;0.0663836543910942
A;0.4;0.10942337760795517;-0.007959670382202688;0.06642411667760317;-0.025515216624325987;-0.00862419761420341;-0.014810201108746313;0.040180812751101413;-0.02293065306955233;-0.015846871009598473;0.01598290791680057;0.15660129238965492;0.08870901401232345;0.13193653899340774;-0.016625911806219307;0.1144843812798193;0.0720982149593484
A;0.5;0.11390286050838938;-0.008538979166257121;0.06691163323557703;-0.028178755192078242;-0.008509702457821788;-0.015631229261982682;0.042178540263975606;-0.02642568826626901;-0.015359329934359067;0.01721680251444546;0.15686902502122857;0.08871904931964103;0.13669426740768031;-0.01765966924729412;0.11940056332195681;0.07765315785037019
A;0.6;0.11772061600454364;-0.00916072858257344;0.06688004389993818;-0.030928745422762027;-0.008265348882922297;-0.016413296950128498;0.043775073764178885;-0.030226231190596753;-0.014628882656564812;0.018433369888306572;0.15524027254184336;0.08766171474675266;0.1405384472778506;-0.018706544913086987;0.12347830337958499;0.08302072727740126
A;0.7;0.12117971821727025;-0.00982339395017462;0.06665825316378182;-0.03371472627449368;-0.00776782857619196;-0.017145895704683056;0.04526242383069068;-0.034214113458407525;-0.013587845752823569;0.01962266332572682;0.15242735287218734;0.08591735932158429;0.1438597672330575;-0.019774639750147927;0.12692970923885838;0.08817525025953238
A;0.8;0.12417815280964462;-0.010533086376526057;0.06614029225669604;-0.03654509959901375;-0.007157061374712725;-0.017849903997737115;0.046519531448437235;-0.038382089751936466;-0.012397429210171396;0.0207736813970385;0.148429681053309;0.08355231145292197;0.14653331807053016;-0.020870827551142668;0.12959984891396736;0.09309987863080205
A;0.9;0.12659524259031762;-0.011294803552504007;0.06520008515039244;-0.03943234726382272;-0.00655600183556615;-0.018542793370265542;0.047408686658396704;-0.042740936607701396;-0.011190359330923272;0.021878436041371074;0.1431519504075398;0.08056562694417257;0.14841236247475198;-0.021997190001510347;0.13133793947986128;0.09778028177803069
A;1.0;0.12834303098346567;-0.012116429628578729;0.06374034656878536;-0.04238199153838185;-0.006151683640140959;-0.019253786191679723;0.04781596517111275;-0.04725736298952299;-0.010193299771168896;0.022921000446809003;0.13673052107309003;0.07713004251695255;0.14938935220834448;-0.02316769704169097;0.13197061657300324;0.10220022568911447
A;1.1;0.12931642006279453;-0.01300542847583408;0.061642708615631925;-0.04540257848282092;-0.006140216365857043;-0.020013179452426755;0.04760934855073451;-0.0519047869378908;-0.009638579047466678;0.02388615290375462;0.12926351406673176;0.0733970540852853;0.14933625872911804;-0.024394703857248956;0.13131603567377503;0.10634663830228502
A;1.2;0.12987889290885057;-0.013952886141069598;0.05929024503391034;-0.04844204969194443;-0.006260214955247534;-0.020789225385161814;0.04714976867550469;-0.056595752968667146;-0.009290029897668362;0.0247759877763567;0.12135139088069691;0.06960755524914841;0.14873047030799347;-0.025666999735497242;0.12972268341158255;0.1102067443239757
A;1.3;0.13054727860044046;-0.01494657577698355;0.057233391254989385;-0.051427041463830925;-0.006126040511965414;-0.021534076079236186;0.046956787322475435;-0.061210903247211235;-0.008792826159693234;0.02559505406653173;0.11381487399978107;0.06608061448209313;0.14824526679482197;-0.02697139765948542;0.12769070088173784;0.11376370301608385
A;1.4;0.1315668265183092;-0.01597690566353016;0.05572705831095792;-0.054323233767552104;-0.005525722931430721;-0.02222099197066285;0.04727154757876306;-0.0657084444110243;-0.007937462671529616;0.026348898663259845;0.10698076502331766;0.06290506664959628;0.14821070930291347;-0.02828995961532499;0.1254942419065177;0.11701370627662808
A;1.5;0.13323260369858048;-0.017031964425552104;0.05507643761442971;-0.05709064562552424;-0.004197074792887889;-0.02281641709716098;0.048387275234423655;-0.07004189369048497;-0.006461402679585504;0.027045664507996392;0.1012224371093633;0.060172980117762176;0.1490223964252242;-0.0296008602033897;0.1234703564437094;0.1199560585534446
A;1.6;0.13585589438850043;-0.01811075654644334;0.055626739834854;-0.059679305895316226;-0.0019802282053511533;-0.023303855011906904;0.050603865934656156;-0.0741039834029773;-0.004250543681378005;0.02767759132232861;0.09720074176151705;0.058219341285381754;0.1510831743802985;-0.0309117433414432;0.12185594326972549;0.12256287567962984
A;1.7;0.13961056650043702;-0.019216922561382077;0.05758140534735823;-0.06205639065460744;0.0011631813444630268;-0.02368300334468465;0.054077261368181695;-0.07780973424072002;-0.001310946010244507;0.028232638808654897;0.09540339866090397;0.057330486213952314;0.1546180618093982;-0.03223681279599333;0.12074007438541301;0.12480475458647441
A;1.8;0.14498654362834706;-0.02034170680077807;0.06145672052920581;-0.06415238180858296;0.005542760938674007;-0.023917853587031246;0.05929206882351501;-0.08102393464838231;0.0026214431848465836;0.028710330015945473;0.09671872982160545;0.057904941715351654;0.16026505051142914;-0.03357166557315949;0.12056911018214933;0.12666819080646932
A;1.9;0.15239750884470737;-0.02147972667779996;0.06769599272207927;-0.06590655633109854;0.011405092460787358;-0.023980635722372412;0.06665360519256325;-0.08362399857256975;0.00774903835590024;0.02910751000281664;0.10193344759982148;0.06031066692914133;0.16856209352632723;-0.034917143955722096;0.12170540406939345;0.12813572119182368
A;2.0;0.16158746460042117;-0.022633679737207757;0.07602790238101687;-0.0673505467524338;0.01856395855417503;-0.0238965111176217;0.07588081208663233;-0.08567258304954528;0.013907971150723952;0.029421008393184067;0.11063470243401774;0.06436275094211896;0.17919656104267956;-0.03626754586693437;0.12393756309404935;0.12921187867264325
A;2.1;0.1722022369021179;-0.023802829518668744;0.08605810764451949;-0.06853404163104315;0.026794768013708392;-0.023694437389103484;0.08659351205388077;-0.08727608976523094;0.020919149464836195;0.029653518288279557;0.12216456166010659;0.06973225991259491;0.19173800685909592;-0.03760463700513306;0.12701440390031848;0.12992173601986048
A;2.2;0.18364391665779856;-0.025007159913144505;0.09719839891889759;-0.06952583828890901;0.0356255113399655;-0.02343685060504086;0.09815621104485395;-0.08854866748896795;0.028334001974856804;0.029787442575205603;0.13567362412110162;0.07611589720849055;0.20542134070967544;-0.03895091986257704;0.130326265275162;0.13024148312946252
A;2.3;0.1952186665169524;-0.026267797076844346;0.10875774162937546;-0.07040807913015534;0.044520494981590275;-0.02319403573941159;0.1098349712828437;-0.08963062527903931;0.035649744592873844;0.029805185853803096;0.15014250102052973;0.0831328130655058;0.21935963905230427;-0.04032821859363267;0.13318166652189412;0.13015122302600254
A;2.4;0.20697139390156138;-0.027569571650012392;0.12072302248074873;-0.07118659538826133;0.05355544725082595;-0.02295676443826089;0.12166086631399864;-0.09055020646702205;0.04297456796738963;0.02972202021235404;0.16549811241451629;0.0906655611394902;0.23364472990477436;-0.041697948566307375;0.13576782771270146;0.12970552355096723
A;2.5;0.21902481662589324;-0.02889786006899797;0.1331679992407917;-0.071856390712707;0.06285175888766403;-0.022710355057592224;0.13374471436210378;-0.09131082840127513;0.05045254505885488;0.029552385594440622;0.1818189950254374;0.09867400918639047;0.24846561344245188;-0.04302525446305694;0.138333137834735;0.12895502054843147
A;2.6;0.2313313677055575;-0.030234165592281315;0.1459673457846149;-0.07243829460747708;0.07244277554914902;-0.02245008074777033;0.1460241857552873;-0.09197920525614789;0.05816881201066515;0.02931564184398816;0.1988136533655509;0.10691399386139677;0.26380173229491355;-0.04426190166418564;0.14101486583282785;0.1279681982515973
A;2.7;0.24388895794139742;-0.03155826201236955;0.15903713616032444;-0.0729489997944599;0.08239695925208679;-0.02216668689209733;0.1584840850946314;-0.09261404038333909;0.06624305460250568;0.029033161200645807;0.21625348461464267;0.11516292751379353;0.27969242637952796;-0.045356790479285536;0.144004714996953;0.12681956628478394
A;2.8;0.2560623199083576;-0.03290405883928038;0.17179569264628292;-0.0734552714526977;0.092164608357443;-0.02193376730228458;0.17044926306055075;-0.09330230631623282;0.074125784322014;0.028675330843602964;0.23336838718868602;0.1232295030871855;0.2953069587328727;-0.046363032544499916;0.1465736774888775;0.12545475089031863
A;2.9;0.2669627654666602;-0.03432150708066217;0.18344514600596096;-0.07404645956710176;0.10097107041692155;-0.021854488094355418;0.18098186705325858;-0.09415831806894204;0.0810342563658466;0.028197072534767997;0.24910671336945667;0.13087235495802774;0.30947290734040545;-0.04736397248320756;0.14765931684675593;0.12378019172636931
A;3.0;0.2762384732367664;-0.03583473860724595;0.19366898377087516;-0.07476059606026553;0.10847859648152536;-0.021975462212539654;0.189699116382803;-0.09521344583887492;0.08662165024351864;0.027578667585508754;0.26311588202425584;0.13805497029751002;0.32173111692899914;-0.04839744857325812;0.14685143236918208;0.1217687449523335
A;3.1;0.2834822147181324;-0.0374735772976269;0.20210981963858998;-0.07563994521778294;0.11429202949934236;-0.022350995467789403;0.19616106312940573;-0.09649933174892311;0.09047770588361637;0.026795321617827383;0.2750042391632994;0.1447525622092274;0.33154489467122605;-0.04951258638128486;0.1436539180756018;0.1193806033303978
A;3.2;0.28801659441676364;-0.0392630792237707;0.2081200995899346;-0.07675819955969487;0.11786537542744213;-0.023052808451586415;0.19965281401485235;-0.0981381694814707;0.09207812825223449;0.02582361790116039;0.2838306571789424;0.15064365512051792;0.33803787953326614;-0.05074695162642762;0.1373408612236684;0.11657437740197452
A;3.3;0.2893657621257333;-0.0412132399219427;0.21121763394668136;-0.07817170206435886;0.1188365269276801;-0.02412819162096369;0.1996691766413914;-0.10023551690026089;0.0910928972627314;0.0246539792702567;0.28885830112121935;0.15542670144672766;0.3406073284268234;-0.05211060561059355;0.12746117743822793;0.11334390951277323
A;3.4;0.2866190149563348;-0.04336731010084449;0.21056343544102507;-0.07997568245527198;0.11644749573371627;-0.025676681598696405;0.1952558828208737;-0.10293356859527147;0.08677454571397902;0.023247643666637785;0.2889042280355323;0.15875680717300988;0.3380585710129109;-0.053674517015119605;0.11297176813519094;0.10960982384577836
A;3.5;0.2789717807526877;-0.045760839952595944;0.20540899127716905;-0.08225494934735078;0.11003415405307493;-0.027785340371790923;0.1855695724951527;-0.10636402449216131;0.07847323102532577;0.021572157262825797;0.2829002605668709;0.1603053722077039;0.32933971835324094;-0.05549690191617884;0.09296508666621417;0.10530712119584368
A;3.6;0.266914783963939;-0.04836525559273319;0.1961574776363353;-0.08497174854465239;0.09998652980976885;-0.03040492511510884;0.1711039075927392;-0.11046071768342092;0.0665923505966255;0.019657473659696834;0.2714605868256128;0.16023097270241538;0.3151229255218677;-0.057521885823723196;0.06811879032746937;0.10053701844503529
A;3.7;0.25121627478648634;-0.05114334706309265;0.18347093810950277;-0.08806186460977994;0.0869056162086359;-0.03345921816521269;0.15264021485286072;-0.11510382626448878;0.051737877356694995;0.01754399566694609;0.25560343792538065;0.15884321330721662;0.2964441632847725;-0.05967836958997452;0.039427763074515454;0.09543055596675115
A;3.8;0.2328024605060417;-0.05403261345059995;0.16812087474071635;-0.09144361272161294;0.07157298672470347;-0.03684696271109722;0.13112574563111679;-0.12018830730115537;0.03472285372424366;0.015288125709965072;0.23639824825903322;0.156348340019814;0.27456398606521004;-0.06185410746199693;0.008131079837375488;0.09014684876378384
A;3.9;0.212785946206969;-0.05696118909440351;0.15104423927870858;-0.09501777316705162;0.05492281697918955;-0.040447031722086635;0.10770082277211301;-0.125581225828165;0.016513191143648243;0.012955427032954603;0.2151537188485051;0.1530204498095724;0.2509906712390624;-0.06392054054968987;-0.0243039079760079;0.08486912802353513
A;4.0;0.19134591113984456;-0.0599310510138551;0.13240542091834318;-0.0987754563753489;0.037052375175434804;-0.04424845389524812;0.08254525318069383;-0.13123300560885776;-0.0028032530913080222;0.010552540361373985;0.1921960826718565;0.1490305520637878;0.225963526545228;-0.0658773981120504;-0.05765118945648595;0.0796398234018571
A;4.1;0.16849272863305487;-0.06295193935766719;0.11222231918267145;-0.10272220067077953;0.017924288472784156;-0.0482573412026408;0.0556674389165952;-0.1371213944720222;-0.02327284856786349;0.00807754026233276;0.16762473519090904;0.14447882938102108;0.19949575743217718;-0.06774003684702201;-0.09190047179024408;0.07447456256522858
A;4.2;0.14465784050148578;-0.06601665170228621;0.09088469031534441;-0.10682733569257952;-0.002169114608893352;-0.052437665591009264;0.02750556229288037;-0.14315084812592138;-0.0446172082489813;0.005548506725123303;0.14212304314746937;0.1396627633858969;0.1721597194430169;-0.06949084425541052;-0.1265172764412199;0.06945199734651672
A;4.3;0.12021064278079763;-0.06912263926822249;0.06873359239130661;-0.11106530893926347;-0.02298887335983224;-0.056760180517816394;-0.001563752777332894;-0.14923239434811197;-0.0666138212696481;0.0029793797435981872;0.11630358694407894;0.13486829002940515;0.14444221893720055;-0.07112144318099567;-0.16105579076312537;0.06463807963245116
A;4.4;0.09594560074435243;-0.07220439913374221;0.046425188915874216;-0.11535944988083813;-0.04382932864325895;-0.06113132158461276;-0.030717090761008592;-0.15530241361665675;-0.08851397850070697;0.00042172249909810944;0.09097431253201771;0.13015827281276438;0.11742771673074648;-0.07252390983542689;-0.1944553675089571;0.060156956876469936
A;4.5;0.07291625384650757;-0.07517083098596622;0.024820409149453937;-0.11960721874399205;-0.06373880887767314;-0.06542461755707585;-0.05886453005268244;-0.16128457440962496;-0.1093043382915102;-0.0020542271691716962;0.06717489009211786;0.12557953491854357;0.0925564752918846;-0.07354735579518668;-0.22529596763101267;0.05617422159196253
A;4.6;0.05149721894856363;-0.07798483559112412;0.004229837254328572;-0.12376914902847957;-0.0823677772170548;-0.06959243290745754;-0.08560660483869853;-0.16716542660016032;-0.12860368248552234;-0.004422139787035206;0.045216862204781716;0.12109491894353352;0.07034251849528239;-0.0741367595585718;-0.25308264767186994;0.052741643587898845
A;4.7;0.03208744263416108;-0.08060404793251585;-0.015017546721658448;-0.12780151658081618;-0.09933359667894948;-0.07358218369488334;-0.1105162646953346;-0.17293695233155537;-0.14599217591821123;-0.0066532511167487485;0.025405809396802148;0.11663681675666826;0.05133389303367908;-0.07423002130241585;-0.27728793130049745;0.04991099120262166
A;4.8;0.015698523896926275;-0.08295699209955032;-0.03208590838151437;-0.1316147348405341;-0.1137711688027494;-0.07728018209272314;-0.13255684618465757;-0.1784902831051398;-0.16056660148322344;-0.008684210868521447;0.008882393712421166;0.11240189931428946;0.036903020533890274;-0.07370410947303618;-0.2965534733039883;0.04785625979194441
A;4.9;0.003168673107875719;-0.0849918102163798;-0.04627672384827353;-0.13513862926140785;-0.12498660577584886;-0.08059573907977402;-0.150871648859928;-0.18371969390900933;-0.17161025582126754;-0.010464315812212632;-0.0033468524280406697;0.10862068019738191;0.028182191074435536;-0.07246811641835293;-0.3097585456355425;0.04672802686768188
A;5.0;-0.0042909790466438835;-0.08661548507153505;-0.056584261340004716;-0.13825819210758628;-0.13191448796285243;-0.08338729677423551;-0.16421134689523598;-0.18851198407301428;-0.1780044628095645;-0.01191758311716029;-0.009989309988452266;0.10545068089156606;0.026814114801354982;-0.07036739069573805;-0.31529672857361923;0.04671429306919328
A;5.1;-0.005569689683659007;-0.08774499713699058;-0.06208781056529045;-0.14087034237360907;-0.13358465453348956;-0.08552594841174432;-0.1714324701028307;-0.1927586224992548;-0.1787322856260456;-0.012974249696711126;-0.009840936057107008;0.10305694579259006;0.03430405336762954;-0.06726319470941888;-0.31168842198393865;0.04799334061753327
A;5.2;-0.00117378809500579;-0.08842648454381852;-0.06318148094002218;-0.14302443195200798;-0.13046333273416266;-0.08707148941126697;-0.1730375162682911;-0.19649969308713855;-0.17428417454882705;-0.01366816605630028;-0.0034256497907527717;0.10141211187535881;0.049953206706592646;-0.06324373103993608;-0.29964642382590867;0.050479074452305206
A;5.3;0.007975068751829184;-0.08873543689641927;-0.06058929254330092;-0.14480351406959002;-0.12336947417360733;-0.08812893073518424;-0.16994442935044418;-0.19982327371068864;-0.1655175324127942;-0.014060423735433147;0.008245613309438848;0.10039488567844512;0.07249529057930504;-0.058453351471479564;-0.28046728285007116;0.05400175111825986
A;5.4;0.020984408726196335;-0.08875796406683811;-0.05504293924276027;-0.14630718487578687;-0.1131453655946828;-0.08880890031637456;-0.16307043596587611;-0.2027827135624749;-0.1533247107937843;-0.01420756610908569;0.024331413389060863;0.10002912848006207;0.1007064366600825;-0.05303991484186277;-0.2553268621925282;0.05845274446630383
A;5.5;0.036731339912003946;-0.08859876167814562;-0.04746051796583739;-0.14765660109963452;-0.10083783239102928;-0.08924881729986467;-0.15356690345413426;-0.20545197552881156;-0.13881319065180264;-0.014181036811503844;0.04374578411829244;0.10031311246073926;0.13304776412247854;-0.04718437973306422;-0.22571557537050868;0.06368472808613482
A;5.6;0.05489780786272114;-0.08827897284634645;-0.038053432699308054;-0.14886571974381724;-0.08669732048184997;-0.08947608217630254;-0.14172199603506463;-0.20788095589954203;-0.12224007588645591;-0.01400591915198568;0.06604261595232774;0.1011152825032755;0.1690688916640215;-0.04094611599386866;-0.19216516236559755;0.06958891768497694
A;5.7;0.07537995976957568;-0.08780298998457958;-0.026862392754805064;-0.149929305163071;-0.0707836342356103;-0.08949269057318965;-0.1276089315734037;-0.21009927827515984;-0.10366253581982754;-0.013693235520829461;0.0910064464924134;0.10233066273152791;0.20861098531681854;-0.03435456355563993;-0.15490889882642023;0.07609495158371016
A;5.8;0.0975053218946691;-0.0872174274477917;-0.014377449982707624;-0.15089018202051374;-0.053652597973457006;-0.08936606306692241;-0.1118674607354162;-0.21219444957245903;-0.08365684579701771;-0.013291396992773485;0.1177903519333845;0.10376311716531772;0.2507383582978644;-0.027518469145816127;-0.11498396215177564;0.08302131897729031
A;5.9;0.12065592583752505;-0.08656365210147143;-0.00104165729057204;-0.15178419020581213;-0.03580574639928358;-0.08915581806037842;-0.09508045635826079;-0.21425175643581085;-0.06274184512567693;-0.012845763853144732;0.1455923642527548;0.10520898772302889;0.2945882409053575;-0.02053886463591681;-0.07336038932742106;0.09018981545510929
A;6.0;0.14420711792302043;-0.08591226939456398;0.012601846976681763;-0.1526979074027146;-0.017864933997525867;-0.08894345673833826;-0.07791680401256151;-0.21628489399360395;-0.041582638668632654;-0.012392607812220291;0.17392002310943155;0.1067845969116743;0.3393015794585148;-0.013528476683658752;-0.03078176239118413;0.0975737614450565
A;6.1;0.16737431219959475;-0.08535488547375714;0.025853677969777777;-0.15374769856187154;-0.0006300890745514209;-0.08883641275218501;-0.061228682462104445;-0.21829955878145268;-0.021037465436320346;-0.011975494234292228;0.2022104743942772;0.10868944100582856;0.38380502266828564;-0.006625772590476586;0.011855782360504996;0.10516428891179455
A;6.2;0.1899510318439237;-0.08492499279051735;0.038525725479383155;-0.15497171461495274;0.01567360990766531;-0.08886114801529921;-0.04525177575354711;-0.22028415060398565;-0.0013531501343884145;-0.011606528619443779;0.23035623572714492;0.11102535392044377;0.4278042459390221;0.00011552707974971099;0.054339801656983155;0.11297572603914327
A;6.3;0.21174866119350888;-0.08465725299526383;0.05043389952345745;-0.15641136567144098;0.03082673504237121;-0.08904380459507344;-0.03021253994362816;-0.22221825974978815;0.01722754872021426;-0.011295556388871475;0.25829991960193155;0.11392674328195973;0.47103002843058883;0.006643079190462586;0.09650763906071447;0.12104064416005092
A;6.4;0.23182287034848414;-0.08464261013958385;0.06079542830529938;-0.15817538959243294;0.04393347836800032;-0.08950349464547358;-0.017083732269643548;-0.22415009209770131;0.03375310404643983;-0.011100309435562394;0.2851876827059674;0.11745226882579995;0.5121841007099972;0.012800023644595981;0.1371277581033361;0.12925245935601862
A;6.5;0.24930740626689918;-0.0849584882987191;0.068918006358758;-0.16035142135958402;0.0541978356333388;-0.0903445408073118;-0.0067370727706457245;-0.22613895321193755;0.04738100446393645;-0.011076486776987693;0.31016820160403613;0.12158777790350794;0.5500699355880581;0.01844259844161833;0.1750073996425101;0.13747466579857517
A;6.6;0.2631456938026613;-0.08571156438167726;0.07389334079078047;-0.1630737588873652;0.06059518366974359;-0.09170436854532582;-0.0002874092678322171;-0.22822331463248702;0.057020167278551526;-0.01128492813675841;0.33235539969187755;0.12646356172575546;0.5832399701613455;0.023395931940246584;0.20884575587318288;0.14563025441663088
A;6.7;0.2723458474100475;-0.08699963775738517;0.07487969034521402;-0.16646391067106503;0.06217124134487406;-0.09371087860660232;0.0012280899016019475;-0.2304431135958751;0.06165498961767213;-0.01178362813757694;0.3508999307909795;0.1321844618240724;0.6103323140494448;0.02749491885767341;0.23739437053848533;0.15363150675800627
A;6.8;0.27729154493380115;-0.08878359570004335;0.07226046053797575;-0.17045551460272268;0.059338592101873644;-0.09629920345810739;-0.0017566209844037672;-0.23279770282971057;0.06172228193911522;-0.012557676886180147;0.3660328196920202;0.13862265404255614;0.631837981836959;0.030775254206542257;0.26101343336917715;0.16143858340161985
A;6.9;0.2787578321066242;-0.09098833438445553;0.0667479597607965;-0.17493615549403874;0.052887206674270715;-0.09935119580385177;-0.0084059239732035;-0.23526638527072397;0.05805862911675774;-0.01356913692059969;0.37832884304853387;0.14561768630453042;0.648777062194819;0.03332883721246205;0.28056884925323367;0.16905024439415958
A;7.0;0.27736863309470294;-0.09354019196740815;0.05898365350240642;-0.1797885707440754;0.043493122327902256;-0.1027670790043036;-0.017986527056111257;-0.23785719771550884;0.051384388552897065;-0.014793428450879276;0.38814304000106326;0.1529372776783977;0.6619588834908028;0.0352280977563435;0.29658856345877105;0.17637494595345662
A;7.1;0.2739391623972445;-0.09634610934136667;0.04977967963974539;-0.1848689240720658;0.03202391605243804;-0.10642006816925864;-0.029560217795383537;-0.24057309795860338;0.042623417667936536;-0.01619590794890513;0.3959785433258598;0.16031406900475154;0.6724502729001847;0.03657403098278422;0.30982270566526005;0.18332654116477007
A;7.2;0.2687837402244764;-0.09937956701454276;0.03939865592156444;-0.1901401516367045;0.018795805770427165;-0.11025885797856638;-0.04281653651326245;-0.24339273640050507;0.03210814771805559;-0.017757645716285353;0.40210952386013865;0.16771696661382962;0.6806537501766998;0.03739046423584114;0.3206916741269765;0.18993215098580266
A;7.3;0.26203230318080273;-0.10263051903551101;0.027939263310516438;-0.19558962382864475;0.003941367375926319;-0.1142590456650634;-0.05763965846217545;-0.2462991221530335;0.0199764489813532;-0.019468594431266695;0.4066715004684345;0.1751500440093814;0.686723332249259;0.03767444164640921;0.3293968710282904;0.19621039938847581
A;7.4;0.2543172959530242;-0.10604504196273545;0.015935682295881826;-0.2011417868445209;-0.011910962846300777;-0.11832405319985462;-0.07339173925557496;-0.24925903132523697;0.006890125502220457;-0.0212934569514438;0.4101990069211894;0.18253965897562852;0.6914916985350275;0.03749876799702356;0.33676000102397374;0.20221551100528798
A;7.5;0.24623266309856184;-0.10957266699961288;0.003880761956361667;-0.2067281754825947;-0.028173821866438686;-0.12236349753786513;-0.08948100969600503;-0.2522376770812502;-0.006532382039051043;-0.023197566513896817;0.41320863751492753;0.18982826197165514;0.6957403272878888;0.0369305971751146;0.34357395600100205;0.208007643912248
A;7.6;0.2381198777466711;-0.11315590663041064;-0.007809619151633029;-0.21225773404647708;-0.0444408827400089;-0.12632079699867482;-0.10544272052620762;-0.2552560888063864;-0.01985414828720522;-0.025170357759323636;0.41582245888997704;0.19681383229924432;0.6998954452533823;0.03600449400676631;0.34995903663697625;0.21344516545572098
A;7.7;0.23037536841521167;-0.11672465422410383;-0.018624235325880534;-0.21761494391836322;-0.060228060224954305;-0.13012978999559977;-0.12071149017572935;-0.25835067913808585;-0.032553942814766756;-0.027203504306710258;0.4181357644985533;0.20322109690820755;0.7044530755981904;0.03476652350625109;0.3559833460034856;0.21833011807274375
A;7.8;0.22302154635124616;-0.12025190891059978;-0.028462648042058447;-0.2227605391970311;-0.07545821310068135;-0.13378142150880556;-0.13518697074899144;-0.26154066616242444;-0.04454265354887532;-0.029297012566164682;0.420069189524543;0.20893997414060816;0.7094123224048494;0.033202412227955946;0.3614695701317334;0.22254287488576976
A;7.9;0.21604032481984348;-0.12371081575838616;-0.03724834432846258;-0.2276556757710324;-0.09008862628772363;-0.1372729328425084;-0.14879831149044342;-0.2648502153735963;-0.055766547958727486;-0.031453536504807644;0.42149824545539083;0.21385333884528013;0.7147169579326254;0.03129375771693077;0.3661585551145734;0.22594506038239995
A;8.0;0.21006114917289587;-0.12702757886115457;-0.0443230161354915;-0.23217801218613499;-0.1034273913877719;-0.14050291088129363;-0.16079563611672576;-0.26829470947830414;-0.06549213024529799;-0.033652393895717836;0.4227580598627858;0.21770628827983773;0.7211850898646943;0.029126577020468503;0.37054791194065473;0.22843010057714894
A;8.1;0.20570758100688913;-0.13013700195250344;-0.049072647207702325;-0.23622033850795354;-0.11480437916186759;-0.1433707126916577;-0.1704734201329856;-0.27187856668074684;-0.07301163438623881;-0.03587038222609351;0.4242244650554663;0.22028714959452733;0.7296311799902704;0.026786059533623785;0.37522911781587;0.229941405809193
A;8.2;0.2036414738920076;-0.1329511251626201;-0.050777694100699655;-0.2396429184918043;-0.12348321101850601;-0.145773541629854;-0.1770072814424566;-0.2756241857680566;-0.0775412380356677;-0.038086254067348335;0.42623315621105196;0.22130901393591684;0.740915549802913;0.02436872983996352;0.3806393031064932;0.2303267523611263
A;8.3;0.20449402812993434;-0.13539016618923583;-0.048763997905198586;-0.2423172818756818;-0.12876400834583634;-0.14761214821034585;-0.17962421082658686;-0.2795512937510489;-0.07833801703216992;-0.04028022109730145;0.4291105650998146;0.22050519323594497;0.7558599616433501;0.021969126717499066;0.38722548241149823;0.22945674405265634
A;8.4;0.20799703020734484;-0.1374780273898839;-0.043338544458195294;-0.24429505927889306;-0.13091832643321766;-0.14892175269971553;-0.17866918313421642;-0.2836435610615067;-0.07568924238426789;-0.04245309286643284;0.43273534126242197;0.21798021058175587;0.7740891529827301;0.019532372706668966;0.3948417098259309;0.22738400929577893
A;8.5;0.21360301139209703;-0.1392630257570211;-0.03509797105696322;-0.24567736032230325;-0.13051569823548803;-0.14978273178211943;-0.17481122668474924;-0.28787505074507447;-0.07019568803290355;-0.044611360764285735;0.4368470439431613;0.2139504047905234;0.7948558322601849;0.016960281886451156;0.40310506853522377;0.2241932578471413
A;8.6;0.2209408881557593;-0.1408044419205261;-0.024509501243466403;-0.2465586678427929;-0.12795169005982387;-0.15023877616570047;-0.16858341051068493;-0.29222117087184696;-0.06228676450966297;-0.04676329912120636;0.44128519848116055;0.20858628496962006;0.8176559155588685;0.01419117250536317;0.4119320453612385;0.22002962924973915
A;8.7;0.22951629622304281;-0.14217611365178762;-0.012176970253313435;-0.24705874987361298;-0.12375586521189064;-0.150352159961594;-0.16067401460152908;-0.2966522115713537;-0.052534119194858064;-0.04891980972855414;0.4458293008171941;0.20211044106450737;0.8418220151849762;0.011143698898786525;0.4211642515141971;0.21506634764585844
A;8.8;0.2390547503072149;-0.1433814596939751;0.0016100813495647515;-0.24721903677468227;-0.11820636593393274;-0.15017195238722003;-0.15137934087806038;-0.30114934972768204;-0.041226098759457486;-0.05107827464262549;0.45039037937948034;0.1946524605561566;0.8669743646628265;0.007778099250289827;0.4305297060657569;0.2093071974278717
A;8.9;0.24940531538492827;-0.14441287804291747;0.016690325275656726;-0.2470599533593374;-0.11145045387310759;-0.14972888907514914;-0.14084679865305816;-0.3056983682250336;-0.02851459010728874;-0.05323489587353869;0.45494614329908245;0.18629834524883115;0.8929007879369657;0.004082169463973884;0.4398450604828579;0.20273944316457512
A;9.0;0.26006793091117153;-0.1452918984179874;0.03254774405146854;-0.24665785264076234;-0.10400297018940918;-0.14910676138714507;-0.1296356525059963;-0.3102760917640657;-0.014934258682982815;-0.05538967423182761;0.459273943278923;0.177246236392;0.9189180141129285;-2.9027066700493265e-05;0.4486592900963693;0.19538930194557272
A;9.1;0.2705653738740885;-0.14603635334453635;0.04868912855339502;-0.24608562623054286;-0.09635668413479692;-0.14838797880895704;-0.11827308560689787;-0.3148586763743566;-0.0009968314295729641;-0.05754210676956539;0.463174021584039;0.16769546987089878;0.9443752707882207;-0.00463133380196723;0.4565281732905806;0.1872783354655467
A;9.2;0.2807477632872093;-0.14670560890556672;0.06484561875162598;-0.24541646968922848;-0.08868081851777632;-0.14757824245162254;-0.10706590136783056;-0.3194312562314483;0.013094000491889801;-0.059705179552580034;0.46660029339865927;0.15774711100679562;0.9690781869716176;-0.009720249289726368;0.4636079003839111;0.17857283283865796
A;9.3;0.2904733051890691;-0.14737926657339173;0.08072876156144027;-0.24473546533827495;-0.08113919647670542;-0.14667210568710942;-0.09636311277977683;-0.32398204443075374;0.027132504747839903;-0.06189647698177758;0.46948431560828086;0.1474860357425658;0.9928456545926807;-0.015291889776737122;0.47017325796146636;0.1694909454038138
A;9.4;0.2997932584340077;-0.14808668740620412;0.09627744642124725;-0.24408113966413314;-0.07369737850029523;-0.14565533020594934;-0.08620368423382807;-0.32849329278776773;0.041129820982906296;-0.06412305944801844;0.4719469411912569;0.1369898908913596;1.0157586192253119;-0.021287665757258267;0.47647353982784857;0.16015676204707288
A;9.5;0.30880282887109445;-0.1488614994233064;0.11146446789329989;-0.2434906210106158;-0.06627743106667694;-0.14450440803033437;-0.07659160301883183;-0.33294958654450824;0.05513894505027217;-0.06639388065208784;0.4741282045347859;0.12632176792112526;1.0379604924067505;-0.0276360252817085;0.4828276306634294;0.15070938386776614
A;9.6;0.3171301595617244;-0.1497702964899954;0.12583407639440836;-0.24305193218729304;-0.05926657140994607;-0.14325659404650004;-0.06807457598756628;-0.33734196291344887;0.06873861891556565;-0.06871909209154126;0.4757899782820858;0.11558707308891791;1.0589474718923235;-0.03440489354316867;0.48919583844942593;0.1413031626379145
A;9.7;0.32436989046654574;-0.15086274965525526;0.13892434672249188;-0.24284394318207614;-0.05308346450085466;-0.14196241915709606;-0.06119552028192565;-0.34165916737792923;0.08148316188691851;-0.07110329565005102;0.4766883231199186;0.10490325744886642;1.0781665259774948;-0.041673910968507144;0.49542501616290124;0.13204942586588023
A;9.8;0.3301741669527587;-0.15223092254214343;0.15027284775843786;-0.24296908446195697;-0.04809692485378747;-0.14064611718674236;-0.056526262411582096;-0.34589950272485126;0.09295860997496419;-0.07356622715649053;0.4765711489955615;0.09436092398252338;1.09515758923061;-0.049490498564100704;0.5015979992217119;0.1231606057770264
A;9.9;0.3341969677161032;-0.15395594225331166;0.15944076157805842;-0.24351807810032344;-0.04466840774725256;-0.13933432869442441;-0.054613349139776446;-0.3500640593201374;0.10276472655688274;-0.07612379152961246;0.47517536309531616;0.08403258888102738;1.109459127117761;-0.057910833755439484;0.5077583664921814;0.11482077644227545
A;10.0;0.3365663927808811;-0.15599305717729273;0.16653242003781799;-0.24447197435671342;-0.04267942520980483;-0.13803434565405936;-0.05524847153720458;-0.3541285902672153;0.11102669323007319;-0.0787624961097908;0.47274159672766913;0.07400536801857971;1.121249914871879;-0.06686145891223916;0.513905915216263;0.10699296542163711
A;10.1;0.33758478178976503;-0.15827398656901792;0.171828329153219;-0.24578603742422533;-0.0418393031112565;-0.13673816267860062;-0.057987700844529755;-0.35806604613645376;0.11804881745021767;-0.08146670744349294;0.4696694868576583;0.06436282432350637;1.1309532623550227;-0.07620837434322958;0.5201044345468091;0.09960612772925437
A;10.2;0.337362394053903;-0.16070532507308144;0.17551564446991197;-0.24739022107878572;-0.04201879205819736;-0.1354655338910593;-0.062541843295282;-0.3618638299613668;0.12399663583970266;-0.08420451580427546;0.4661265947637787;0.05510792391372399;1.1387002705493467;-0.08593365730708946;0.5261612256014576;0.09249320700763239
A;10.3;0.3360739838661395;-0.16317585204464002;0.17785654683443486;-0.24919907672599528;-0.0430240777154971;-0.13423423223098396;-0.06851684597241992;-0.365505594895287;0.12910639977998173;-0.08693978694273774;0.46234975558876457;0.046246701670003665;1.1447091196828156;-0.09600160166974803;0.5318736215671827;0.08545578044312974
A;10.4;0.3339206578565488;-0.16568624183205216;0.1789909437451609;-0.2512116721185125;-0.04467066107172357;-0.13302488149577663;-0.07569553573142329;-0.3689916190749476;0.1335501245389672;-0.08968124691055124;0.4585490195141477;0.037814945051122484;1.149287231946499;-0.10627930967085142;0.5374392938154156;0.07854437424585375
A;10.5;0.3310311012941618;-0.16825395229519913;0.1790001211901684;-0.25343283918436477;-0.04683809554142826;-0.13181849710748672;-0.08396619777846404;-0.3723368770774256;0.1374335533416815;-0.09244167127837777;0.45480879060555157;0.029800529206460702;1.1526420814781237;-0.1166642635516304;0.5430494136436703;0.07182509645629179
A;10.6;0.3277533195456961;-0.17085524275211483;0.1781415023942392;-0.2558524300432792;-0.049213152066887034;-0.1305908857605651;-0.09291294106785308;-0.375516955047416;0.1410578001016276;-0.09522481213736533;0.45156275866925855;0.02231746038200999;1.155285363443136;-0.12696267426096952;0.5489478035943272;0.06533370384823847
A;10.7;0.3244273371812696;-0.17347493118341006;0.17666981484264266;-0.25846102592537523;-0.051487361739606996;-0.12931433184203023;-0.10213954186962049;-0.3785166412826504;0.14471759642125015;-0.09803812943868984;0.4492003846088357;0.015451870826140635;1.1577209776431028;-0.13698234049289226;0.5553934314087687;0.05911446336885895
A;10.8;0.3209831209048062;-0.17602743757713668;0.17470619215163463;-0.2611611854270661;-0.05366720812418535;-0.12801422304344356;-0.11154855968795374;-0.3813727017779436;0.14845911174588267;-0.10084682082615615;0.44750500479269917;0.009001888044825046;1.159812167439453;-0.14682490375106028;0.5620570081641176;0.05294378996048807
A;10.9;0.3172850307658468;-0.1783904615112828;0.17236387568288158;-0.2638298797240388;-0.05581078289977626;-0.12673510605217153;-0.12104966525749994;-0.3841148331038937;0.15229599757104317;-0.10359814280733914;0.44621725686699243;0.0027534817381713594;1.1613067972556348;-0.15665450145507087;0.5684380656692056;0.046512571133946634
A;11.0;0.3131747528114044;-0.18053226250180643;0.16968504147264696;-0.26638864148893315;-0.058000135432951794;-0.12548895754572342;-0.13071999301673465;-0.3868231044520236;0.15618573637818756;-0.10627846926836071;0.4448791193587023;-0.0036109455847457284;1.161965515516728;-0.16658708201447503;0.5742812424112547;0.03966421448432844
A;11.1;0.30844506604800337;-0.18241592733816248;0.16669914091654459;-0.26874804466927316;-0.06035352022532692;-0.12429224855738141;-0.14067555037982338;-0.38958709570055694;0.16005653753073013;-0.10887055543376079;0.44294317760695145;-0.010455765689685537;1.1614728333587756;-0.17677463644578495;0.5792676739019136;0.032212624213094204
A;11.2;0.3032075664676146;-0.1839288963827279;0.1635790159783479;-0.2708399346367605;-0.06276008737329519;-0.12317808196767999;-0.1506027661433631;-0.3923618673883964;0.1640533805063722;-0.11133108133867609;0.4406751544599401;-0.017691793684952106;1.1599448395561678;-0.18721274808157595;0.5831605441108874;0.023980563639975083
A;11.3;0.2976534669189643;-0.18498411344763532;0.16050075406883924;-0.2726260422185227;-0.06505662346114605;-0.12216773243770263;-0.16015165488605376;-0.39508970340677063;0.16835301157536975;-0.11362983729255127;0.43847347523400426;-0.025150583283894745;1.1576285580957353;-0.19782567860132083;0.5858717518007666;0.014873012843370781
A;11.4;0.2918063503544648;-0.1854396329927699;0.15766643876843922;-0.2739917008996837;-0.06717906649348748;-0.12130370675926017;-0.16903591233402437;-0.39775155082359204;0.17307958167975457;-0.11570907736371439;0.43639052236808773;-0.032888305686046504;1.1544891274444349;-0.2087045725340051;0.5869797292819019;0.004599321378261384
A;11.5;0.2857223184434652;-0.18516543353965353;0.15525517165353797;-0.2748453735128429;-0.06905299956480704;-0.12062717373615506;-0.17696214722976045;-0.40030970148501943;0.17835355482320558;-0.11751611761401826;0.434585582895894;-0.04087800529990204;1.1505451163546958;-0.21990305348416683;0.5861327109705208;-0.0070800633686710635
A;11.6;0.27939830018001643;-0.18425192279118008;0.15325642250558502;-0.27521035160063967;-0.07067216300146484;-0.12010315888960399;-0.18405061434090086;-0.4028460140176868;0.18414835460100676;-0.11909460225880864;0.43276373142164326;-0.04931637162339553;1.1458473291240001;-0.23134508147093413;0.5835663699481319;-0.020027439971084124
A;11.7;0.27274860033251613;-0.18284464388721844;0.1516253255725193;-0.27511210875897607;-0.07208134997880222;-0.11967520847123048;-0.19058085363466404;-0.4055072226087306;0.1903793842816004;-0.12051133004376346;0.4302989431452322;-0.05860254479214344;1.1403500436326883;-0.24298202874758523;0.5795869163182612;-0.03406205198394886
A;11.8;0.26593297142036576;-0.18107838738781545;0.15023621074264604;-0.2746853158528557;-0.07322274702890397;-0.11930792295802917;-0.19661876583300142;-0.40827241623694865;0.19700780714597776;-0.12182835480209064;0.42747717373814265;-0.06848960234667523;1.1343672190516036;-0.25455452834660974;0.5747467227566734;-0.048810623367674416
A;11.9;0.25910658783313956;-0.1791191479530614;0.14893848526019937;-0.2740813715786041;-0.07404594007354959;-0.11895485963724184;-0.2022850199559585;-0.41113643836336466;0.20397571139207393;-0.12312149837027242;0.42452637007374827;-0.078758512759598;1.128222391254187;-0.26578362621538965;0.5696829990951606;-0.06384546077112224
A;12.0;0.25209340609452013;-0.1770237708416058;0.14780415273525982;-0.27322773168694603;-0.07461893963687416;-0.11858372506853598;-0.2077795172182686;-0.4142597303163371;0.21122807787297582;-0.12441675613414738;0.4206005523071674;-0.08999467492452795;1.1216724422129885;-0.276788233053459;0.5643264780406287;-0.07923606833246372
A;12.1;0.24474055455950783;-0.17481461356039496;0.14691299308576955;-0.2720480464402444;-0.07500156690515425;-0.11817824003791344;-0.21322923613002764;-0.4177608213312647;0.21872136178095225;-0.1257236955011649;0.41501831939770506;-0.1026702617755868;1.1144849226929345;-0.2876942526139956;0.5585336344978877;-0.09508830741266214
A;12.2;0.2368073196906959;-0.17260317718799456;0.1463264234245818;-0.27046654308445817;-0.07529329729672796;-0.1176798298902213;-0.21897553093363697;-0.4218785467254813;0.22636880311186047;-0.12709407116535054;0.4065891491250797;-0.11760207059055028;1.1063553436914537;-0.2986367551811391;0.5523171381824508;-0.11143369279805296
A;12.3;0.22804179604975872;-0.17049006760877283;0.14611492972935913;-0.26839790567907684;-0.0755991188557914;-0.11703394533303602;-0.22535066854782926;-0.4268476563777086;0.23408224381314646;-0.12857393040245135;0.3941102760915003;-0.13561483363527094;1.096951838524888;-0.30977276838907564;0.5456437706018438;-0.12833120079371593
A;12.4;0.21877023123667882;-0.16855004247229388;0.14607175867335087;-0.26605103617885373;-0.07581920877826676;-0.11625009454479596;-0.232204426966085;-0.43245552610203;0.24182630191597632;-0.13019380912238354;0.37873222950874696;-0.15582181811683338;1.0867857126563185;-0.3207365181795101;0.5390858547136776;-0.14533130910198078
A;12.5;0.20947779414097667;-0.16687869209391515;0.14590308790772255;-0.26372631933022106;-0.07579669309905768;-0.11534263612492879;-0.23930033648539428;-0.438393347579483;0.24957657431431102;-0.13199423242183173;0.36217712029407334;-0.17691871475703236;1.0766232553475001;-0.3309950779242339;0.5334618957784532;-0.16180093300663778
A;12.6;0.200438201668522;-0.16548077650101156;0.14547814153308458;-0.2615688993223779;-0.07544483506002209;-0.11434384981721202;-0.24640933342346827;-0.44443269404766816;0.25731532545069946;-0.13397131306000176;0.3455236339033543;-0.19808514488404616;1.0668394419488083;-0.3403025204106065;0.5290732446862947;-0.17746527957437233
A;12.7;0.1919888125971312;-0.16435298500817375;0.1446339434944166;-0.25975583475128783;-0.07465682989943545;-0.1132955497054855;-0.25324282446360513;-0.450288587830344;0.26502841678478006;-0.13611665935133388;0.3301298475936809;-0.21829549704331597;1.0578963333743476;-0.34836114322682654;0.5262728409317123;-0.19199992684109907
A;12.8;0.18434531631220885;-0.16363994646323654;0.14321359562966496;-0.2584542352294692;-0.07336243165577727;-0.11216001726258362;-0.25985125263325237;-0.45591672925808346;0.27267971299948357;-0.13849932015450328;0.31645960241759274;-0.23717170261554132;1.050205615941184;-0.3548551888408067;0.5256962468322008;-0.20496586575132253
A;12.9;0.17757841630379723;-0.16348252656188755;0.14115045875724874;-0.2577462756082838;-0.07153649729823641;-0.11088490710788612;-0.26638692330699243;-0.4613865801403172;0.2802326527446777;-0.1411880388455522;0.3043739106038781;-0.25478334922521406;1.0439614555276016;-0.35961410264043536;0.5277930634111065;-0.21607860217300992
A;13.0;0.17208164636830325;-0.16402246611562887;0.13815915014731672;-0.25790900432206776;-0.06906480335483067;-0.10945529841688462;-0.27277254617577107;-0.46649291856658737;0.2876370781827333;-0.14424725908828506;0.2951360076441052;-0.27014744907063104;1.039828285724449;-0.3621554951485777;0.5334073380554063;-0.22471024953315666
A;13.1;0.16818044141529676;-0.1653997216420766;0.134009194634773;-0.25917363539365734;-0.06584926780208633;-0.10784627651781165;-0.2789789705361496;-0.47109616550565336;0.29485320836217;-0.1477426860658575;0.28968938351869555;-0.2825262493839402;1.038372700318275;-0.3620671717061601;0.5432932228890923;-0.23031405825631812
A;13.2;0.16568248397245;-0.1675437175676926;0.12889588394400686;-0.26138321132561426;-0.06194729709346092;-0.10606820248267645;-0.28500222163077815;-0.4752792965269159;0.3018762600646685;-0.15163771870889775;0.2873125086914565;-0.29244628486614377;1.0392148906736354;-0.3596358515930689;0.5569676064073121;-0.23322000188251937
A;13.3;0.16434477051235596;-0.1703072874186926;0.12306038670774022;-0.2643291395222809;-0.057442078554203135;-0.10416234578396733;-0.2907538669364982;-0.4790784859052706;0.3086973454158741;-0.15585566539224516;0.2873097692652311;-0.30041209075512176;1.0418268518211533;-0.3552689863675873;0.573667724786393;-0.2339217932303825
A;13.4;0.16366543050310156;-0.1736290223728858;0.1169507775081744;-0.2676483979907358;-0.05245790597114208;-0.10208530417192918;-0.29647219800977176;-0.4829003690350797;0.315365324795728;-0.16037533558841943;0.28743973828896996;-0.30811964775914724;1.0454046226700133;-0.34955158687066756;0.5925516650772806;-0.23309610607664366
A;13.5;0.1630665885987952;-0.17741797711401475;0.1110760858920985;-0.2709219590931724;-0.04714240135814407;-0.09979813846455343;-0.30240270839180816;-0.48718509532379795;0.3219338879199185;-0.16516116675599868;0.28521581488493775;-0.31745082652584955;1.0490068774520183;-0.34317063887051447;0.6126005226206672;-0.23154565659650503
A;13.6;0.1626561047304147;-0.1815607318613175;0.10537850714247288;-0.274184515009817;-0.04150331763456805;-0.09737149983848425;-0.30828322105031525;-0.4916787561456193;0.32834597296360357;-0.1701473856781508;0.2814618662358619;-0.32774520616401603;1.0526365053051097;-0.33616268026095497;0.6335860408363825;-0.22931235366486957
A;13.7;0.16260502376444208;-0.18597699745593665;0.09974967465121587;-0.27751761035159106;-0.035528260650664834;-0.09486461346649122;-0.3138680870620387;-0.49611976046492146;0.33454689526730874;-0.17528643734699756;0.277153636037784;-0.33823132228397235;1.0564230803439487;-0.32847364235226983;0.6554523279576703;-0.2263241921032123
A;13.8;0.1629547803196676;-0.19048981716824187;0.0941871158036589;-0.2809008003617146;-0.029250785850294392;-0.09237544423189803;-0.31883176098455657;-0.5002226456361876;0.3404739295594119;-0.18047699105182957;0.273071627859637;-0.3482768129132743;1.060210341833856;-0.32026227860747625;0.6777116212368064;-0.222781490089332
A;13.9;0.163790062433959;-0.19492329556026;0.08864959227540226;-0.28434309054775486;-0.02269708650333868;-0.09000589409713733;-0.32282698596577575;-0.5036654972015686;0.3460587545091265;-0.1856180540971355;0.270188260709491;-0.357102747724084;1.0639056991475417;-0.3116446912997777;0.6999344525642428;-0.2188329362848881
A;14.0;0.16456437576590766;-0.1993066684609115;0.08363168946640176;-0.2874601636302154;-0.015981291090916727;-0.08764468931123659;-0.32629969433486394;-0.5070615979859241;0.35140208507445436;-0.19074653772189976;0.26561556191569924;-0.3669246649525457;1.0667539436128222;-0.3031733239034793;0.7214819493893643;-0.2151005263613526
A;14.1;0.16448399496509047;-0.20370855873389893;0.07983826600797705;-0.2897082993831317;-0.009258322054094492;-0.08512403132163726;-0.32992763920621826;-0.5113195445005991;0.35665677001779805;-0.19592763499294463;0.25515095908485463;-0.3809736317242469;1.0676954895483495;-0.29560693797835746;0.7415191116463742;-0.21244209221544302
A;14.2;0.1632572360567437;-0.2081809982555356;0.07753443526617154;-0.2908820537539887;-0.002594807047863412;-0.08235155288640428;-0.3340429596321215;-0.516847816063652;0.36188586864626693;-0.20120743613567882;0.2369997030834461;-0.4006255800954748;1.0663597713031447;-0.2892293123652756;0.7597937409747271;-0.21115016562230948
A;14.3;0.1605362340813734;-0.21280049861942807;0.07703150645530066;-0.29074220163761666;0.0039354108183928815;-0.07921141267736154;-0.33906333482348927;-0.52415005615488;0.36717105507207215;-0.20664842892528057;0.2089965875751072;-0.4275458996185304;1.062327054734942;-0.28435668409330717;0.7760548405355703;-0.21155101073548255
A;14.4;0.1557262421248673;-0.21752359230671559;0.07886318394317371;-0.2888673811329907;0.010199444128293322;-0.07564008366421326;-0.34531413643136943;-0.5337402837716483;0.3725911566982134;-0.2122391808710784;0.16844492990756166;-0.4637914191472263;1.0546958586125585;-0.2816480123319547;0.7894071297209262;-0.21440539664756258
A;14.5;0.14842122472821373;-0.22226226175160235;0.08339674704399425;-0.28495985937473556;0.016091630767888887;-0.07162934148282041;-0.3529136152398067;-0.5458728639255201;0.3781755629625536;-0.21793609571304273;0.11375315178037804;-0.5105611446511289;1.0427805436836717;-0.281616041680401;0.7990684211520236;-0.22030677274875488
A;14.6;0.1378116217044063;-0.22702513757845288;0.09134866915769102;-0.2784587306582278;0.02144605941228761;-0.06704874189950338;-0.3624414022031637;-0.5613689256604011;0.3840665539207251;-0.22376704578021034;0.04095955880028734;-0.5709003467068938;1.0254481712291599;-0.2850804782876182;0.8040282704441761;-0.23020239729469844
A;14.7;0.12317744074423231;-0.23180361630774193;0.10335470556436022;-0.26886484682722767;0.026111254560785113;-0.061795088689128974;-0.3743794711964199;-0.5809226043053606;0.3903809960137945;-0.22974517459619292;-0.053357321526678714;-0.6474340769835338;1.0016726610251037;-0.29278572078694687;0.8033434766007748;-0.24495146801650694
A;14.8;0.10500406076511482;-0.23653964660899796;0.11898358688779531;-0.2564949411750028;0.03014024537952764;-0.05595455067700783;-0.3883599213466624;-0.6040016146518727;0.3970043725825203;-0.23583083169243046;-0.16677776751364126;-0.7382763934788081;0.9720604759813958;-0.30434629655604617;0.797440953054041;-0.2640617485827703
A;14.9;0.08404126032011838;-0.24119584170437314;0.13756672227680777;-0.24184732971259582;0.03363396993541912;-0.04962940520839432;-0.40390536883216477;-0.629873563000483;0.4037898887776006;-0.24199533964091557;-0.2957774390245804;-0.8406980427927091;0.9376207163325161;-0.3190991844873654;0.7871409083519509;-0.2867069560638991
A;15.0;0.06113644185406386;-0.2456318378232698;0.15835281597488038;-0.22548671418926958;0.03670525144501369;-0.043028795864895386;-0.42021169646646506;-0.6574582381324108;0.4105103028830648;-0.24812902756566046;-0.4356721408948039;-0.9510459512564946;0.8993694193390063;-0.33636680517861883;0.7731008721279444;-0.31205482336394286
A;15.1;0.03730951110591896;-0.2496991342310384;0.1804364130880156;-0.20809520650272795;0.03949590049748508;-0.03638987501776647;-0.43635172387500454;-0.6854977916227014;0.4169053188744556;-0.25411389639456594;-0.5809313189007856;-1.0650140227927585;0.8585565325328051;-0.3553098103055401;0.7561737302260507;-0.33908002607364474
A;15.2;0.012772008357343267;-0.253442821453012;0.20361635007869605;-0.1898130257251145;0.042022747179458975;-0.029682160248629685;-0.4523803351590736;-0.7139400364667345;0.42297248911325447;-0.25998812648395564;-0.7309531318922797;-1.1821548808364746;0.8155604880503622;-0.37570484596859544;0.7367553544376069;-0.36748442251971036
A;15.3;-0.012434261175862105;-0.25691512017741935;0.22784020411950845;-0.17066877841880146;0.04427658968513981;-0.02285357827950385;-0.4684640299298408;-0.742891946497672;0.428740763443475;-0.2657948229960745;-0.885903267938069;-1.3026151848419385;0.770536112437173;-0.3974803737499144;0.7150562987616436;-0.3971541832155042
A;15.4;-0.037845728598162154;-0.2601659690539311;0.2526800867451522;-0.15097261831167774;0.046314363406001036;-0.015894472140075777;-0.4845281911648449;-0.7720968884009527;0.4341706740399367;-0.27157515060653736;-1.0441099405260343;-1.425125744901675;0.7242177339497824;-0.4201708430020936;0.6918000717782604;-0.42749621907788926
A;15.5;-0.06305922315894108;-0.26325881403484175;0.27775972042459074;-0.1309960168893367;0.04818559111374654;-0.008778930400181295;-0.5005653819385572;-0.8013786646131615;0.4392417358805094;-0.27737985205216376;-1.2042299651694577;-1.5486765133517904;0.6772785938448078;-0.4433522892509174;0.6676783103380526;-0.4579694659216905
A;15.6;-0.08742295770617758;-0.26602260808914124;0.3024951860266505;-0.11118593308399216;0.049979168143273967;-0.0017431058027810309;-0.5157704244890109;-0.8297006895311179;0.4437332385766055;-0.2830665633495659;-1.3620290499487524;-1.669954709421575;0.6304417472788264;-0.46653293857572464;0.6430486587175981;-0.4879775411988627
A;15.7;-0.1100762530246957;-0.2682051407254544;0.32612083616339316;-0.09213040260030958;0.05181432039589495;0.004878613123244335;-0.5289999918455948;-0.8556360086119104;0.44733643510929255;-0.28842806617471695;-1.5117872585887318;-1.7844760587937123;0.584611055907374;-0.48908859750744504;0.6183000782336023;-0.5167689816819175
A;15.8;-0.13076001703710638;-0.26970153418992204;0.3483954690080342;-0.07401681730620702;0.05372512594992074;0.010946130610932414;-0.5398441021042277;-0.8786429648880807;0.4499410675950948;-0.2933726817918121;-1.6513749095154038;-1.8905769532019856;0.5400694656701353;-0.5108313111945328;0.5935035422333517;-0.5441212497839877
A;15.9;-0.14921283974522126;-0.27038656757927804;0.36907678417163226;-0.05703665048751905;0.05574775551246702;0.016295785910394045;-0.5478284845934596;-0.8981155096563129;0.451422617530044;-0.29779057010025944;-1.778468518677303;-1.9864390420512472;0.4970804023603965;-0.5315817107044278;0.5686820296127593;-0.5698263251166328
