Condicao;Tempo_s;Ch5_HbO;Ch5_HbR;Ch6_HbO;Ch6_HbR;Ch7_HbO;Ch7_HbR;Ch8_HbO;Ch8_HbR
A;-20.0;0.13444216450404234;-0.02209197898111004;-0.0992902906723181;0.09451475472327253;0.46157066774850275;-0.1790622794241119;0.2440150103574199;0.012469576678915573
A;-19.9;0.14018102410591027;-0.02148137338308942;-0.09076364545463189;0.08936517384181819;0.45968960679604454;-0.17910594706222982;0.24489346080417196;0.008125732884349368
A;-19.8;0.14549129324066357;-0.02081181403642507;-0.08262892671643929;0.08440724435880842;0.45730255828672384;-0.17889177351980523;0.24544752716279739;0.004250977670717582
A;-19.7;0.15041532804572721;-0.02014915257983585;-0.07484087221393843;0.07965739771216107;0.4546511551949708;-0.17843569778139523;0.24578521041164514;0.000799693258226597
A;-19.6;0.1549831911250381;-0.01950682133756665;-0.06738054770505819;0.07512316300831845;0.45182512693884114;-0.1777455915286228;0.24593732370769317;-0.0022537227434051843
A;-19.5;0.15923656441963185;-0.018894350739754096;-0.060223141420586046;0.07081230535869043;0.4489196375784674;-0.17682972778608752;0.24593376700374225;-0.004940283265237433
A;-19.4;0.16317103569958924;-0.01840141840325682;-0.05334234953568995;0.06673832201213514;0.44617398295843635;-0.17570768767746303;0.24590188983933636;-0.007290109572710257
A;-19.3;0.1667621135110453;-0.018113759297099463;-0.04672546884112716;0.06291174015889123;0.4437908718337189;-0.17439846994572195;0.24595668639479662;-0.009323451183838927
A;-19.2;0.17002813854385312;-0.018128493906141685;-0.04032718253850831;0.05934619297321575;0.44205561874085664;-0.1729246631865542;0.24623720200700827;-0.011089415432674166
A;-19.1;0.17298116059021584;-0.018536979343792837;-0.03410872040978674;0.05605458100531813;0.441231656014069;-0.1713084128841582;0.24687673782110675;-0.01263086106297262
A;-19.0;0.17560007842152903;-0.0193046373988075;-0.028099175672127608;0.053030256657905284;0.44121897584935965;-0.16955274430787215;0.247821419376133;-0.013942260642684445
A;-18.9;0.177867415052269;-0.020359615030312916;-0.022337474929626566;0.05025964060773003;0.4418246246966264;-0.16765580255528656;0.24895998628631233;-0.015014827488946558
A;-18.8;0.17973247837035178;-0.021646135348476037;-0.01688285750504992;0.047735926964786124;0.4428620730606747;-0.16561762403587332;0.25022395651761364;-0.0158096809008077
A;-18.7;0.18113968902425182;-0.023091023629294938;-0.011803808633064072;0.045449088956050154;0.4440936766029546;-0.16343590176504064;0.25151843450482403;-0.016281857672891142
A;-18.6;0.18210636884164533;-0.024662489079052996;-0.007096945938167565;0.04338716810717003;0.44546482112994124;-0.1611171292211968;0.25278495038736803;-0.016461053534874814
A;-18.5;0.18265594705318033;-0.026344732094806034;-0.0027489876604560592;0.041541140603484905;0.4469691357878718;-0.15867073143712895;0.2539944642168672;-0.01638165647573775
A;-18.4;0.1828035917911377;-0.028077461981488305;0.0012329766625800431;0.03989229450046583;0.44847414757914184;-0.15609923225358768;0.25503671991231247;-0.01607207925794185
A;-18.3;0.1825701152000594;-0.029803274434200944;0.0048475790931279406;0.038421654811247485;0.4498600178356025;-0.1534060692727155;0.25580652940041837;-0.015565172241167602
A;-18.2;0.18190513115834595;-0.031489344370127625;0.008042253122747312;0.03712980336365579;0.451000939378563;-0.1505965906133837;0.2563012200985506;-0.014810713850989643
A;-18.1;0.18073107362210283;-0.033099480568049344;0.010741203477231842;0.036020719069693286;0.4517346735789083;-0.14767478439048753;0.2565266191250126;-0.0137308520704984
A;-18.0;0.1790243236357849;-0.034627813546530106;0.012923539698637576;0.03509599236999694;0.4520301617314795;-0.1446515557523349;0.2565199313779827;-0.01230042136551912
A;-17.9;0.17675615052094784;-0.036072049149254326;0.014565329251832182;0.034359314342432334;0.45185998916024417;-0.1415382030338601;0.25633249799914637;-0.010486041971991433
A;-17.8;0.17387063921227774;-0.03737729357427799;0.015604342597406173;0.03380224885120331;0.4510306835458273;-0.13833594688574502;0.2558983320070105;-0.008246228765394825
A;-17.7;0.17033166014910694;-0.038489296717183485;0.01599581785182913;0.03341130194254305;0.44936815210104086;-0.13504664212148176;0.2551329161120668;-0.005564798483006506
A;-17.6;0.16606675114315905;-0.039349211532162975;0.01566171434823982;0.03318325612901596;0.4466515874155883;-0.13167004992946785;0.25399404893172406;-0.0023690821466422207
A;-17.5;0.16101147701623297;-0.039902041552159595;0.01453280258766032;0.03311246503905263;0.4426760878865359;-0.12820633418615257;0.25243218629850883;0.0014001790668789482
A;-17.4;0.15522575786662252;-0.04016699384724198;0.012669176916665137;0.0331862362983637;0.4375490898379608;-0.12467247283852112;0.2504659810308203;0.00567300082460509
A;-17.3;0.14880179272585448;-0.040184809599695726;0.010164392688086998;0.03339370392615759;0.4314650020031685;-0.12108993605326424;0.2481557555396554;0.01035851530709575
A;-17.2;0.1418272425638767;-0.03998989048722912;0.007110226218525639;0.03371149884433766;0.42459136587999957;-0.11747702766407775;0.24547833958951326;0.015328621199521386
A;-17.1;0.13440803081532327;-0.03962686467028842;0.0036172897982229557;0.0341149642291354;0.41713910758727657;-0.11385421917149285;0.2424192626634616;0.020436627900958904
A;-17.0;0.1265950600204988;-0.03911085816822535;-0.000265920504923578;0.03460271284639216;0.4091940258948714;-0.11023544836552324;0.23905930021614452;0.025665880762913318
A;-16.9;0.11842205616282087;-0.03844828798063382;-0.004507804483466771;0.03517396655909266;0.4008004950880659;-0.10663132562437427;0.23546737403356754;0.0310167368174028
A;-16.8;0.10996813435805919;-0.03767034768222466;-0.00903182434812777;0.03582755310421781;0.39211430136111236;-0.10306060131467332;0.23175348643021998;0.036450596847462435
A;-16.7;0.10130902126418029;-0.036806345938671825;-0.013765151488954963;0.03656375526807132;0.3832818427588389;-0.09954067241972586;0.22803251437169703;0.04193815774833887
A;-16.6;0.09250603961435466;-0.035882086963102466;-0.01863752910671046;0.03735385055280638;0.37441090357260176;-0.09608159514939585;0.22422469547564106;0.04735590594723327
A;-16.5;0.08362812014172061;-0.03492849374638318;-0.02356772296968579;0.03815915407896586;0.3656267196292502;-0.09269409105546833;0.22019692100930666;0.052537231206602364
A;-16.4;0.07470952907959827;-0.033953617347203924;-0.02851554929581912;0.03895884996390375;0.35696181551024164;-0.08938098997111643;0.21588711606117972;0.05741494894044319
A;-16.3;0.06578121497112921;-0.032964786489860565;-0.03344287165931625;0.03972952006583341;0.3484409229702372;-0.08614342890572102;0.2112127632782288;0.06191515482272969
A;-16.2;0.056930458353406266;-0.031998919972120454;-0.03825671207369297;0.04044287081360487;0.3402318037115988;-0.08299919759135177;0.20612622104017664;0.06589435903098373
A;-16.1;0.048243629567089386;-0.031089329873062788;-0.04286908963033742;0.041078568044186525;0.3324955211781253;-0.07996672310093755;0.20062729484142672;0.06924077045473886
A;-16.0;0.03980873370537896;-0.030279940148795426;-0.04718125974102616;0.04160036342927764;0.3254109915591643;-0.07706058962722784;0.19461604353079487;0.07177832172915632
A;-15.9;0.031711061903387794;-0.029610741541941543;-0.051099908939930216;0.04197556550604986;0.31914685944359267;-0.07429589157582006;0.18801174959289924;0.07334686832976534
A;-15.8;0.02395812389576779;-0.029064070843987544;-0.05462670740770115;0.04221439840967722;0.3136498078784591;-0.07166984126898024;0.1809077055585364;0.07402401443190687
A;-15.7;0.01653066263383085;-0.028608335394013196;-0.05779197307634831;0.042336471816128984;0.3087997775591189;-0.06917101001525916;0.17342078491522006;0.07394642872092216
A;-15.6;0.009428074692632293;-0.02820913509653078;-0.06061747933038397;0.04236595257064746;0.30450701775738676;-0.0668020343785618;0.1657267743538462;0.07325161324623508
A;-15.5;0.002638712011038713;-0.02782412423859615;-0.06313861981391344;0.04233339891065402;0.3006507554885287;-0.06456279164592837;0.15802708116730368;0.07211161176722936
A;-15.4;-0.0038426344012467695;-0.027447429347282615;-0.06536043102091948;0.042240454040482156;0.29717866163805784;-0.06243966746469054;0.1503351042019272;0.07057281445951169
A;-15.3;-0.010012936956770524;-0.027080433190488584;-0.06727840135946561;0.042083149852608415;0.29406622420601725;-0.06042203973620852;0.1426392996529513;0.06864934601553774
A;-15.2;-0.01589540201192019;-0.026705766982225043;-0.06891685450443141;0.04187207865879827;0.29120968126569036;-0.05848880460456973;0.13498288048726437;0.06644098094147743
A;-15.1;-0.02151439203492167;-0.026308784720368017;-0.07030014175750132;0.04161613103437478;0.2885097044301217;-0.056618119572590775;0.1273955870351262;0.06403891649668392
A;-15.0;-0.026859056177967133;-0.025860736230807646;-0.0714438787974423;0.04133463798546444;0.28591588964271963;-0.05482368021059125;0.12004013892817778;0.061539892040254784
A;-14.9;-0.03191202364797707;-0.025322955179460926;-0.07236612015595156;0.04105454520778906;0.28337335080743653;-0.05312763517566532;0.11314090679263789;0.05906727632419706
A;-14.8;-0.036658324037050605;-0.024685780620512965;-0.07307072273836734;0.040782803506850485;0.2808771323909882;-0.05154213292175358;0.10678303280440904;0.05665383356028908
A;-14.7;-0.04108038981684459;-0.023938930734320962;-0.07356157470183877;0.040526996861888875;0.2784289052778268;-0.050083115458532834;0.10106076200507186;0.05432973303820354
A;-14.6;-0.04517644599338411;-0.023044455686717313;-0.0738610073396595;0.04031505544956815;0.27593718631831887;-0.048754223157553955;0.09616999876551979;0.05224472248682854
A;-14.5;-0.04895089583301715;-0.021971699799583355;-0.07398956281780666;0.04017065024521216;0.2733095706428852;-0.04755011384749652;0.09226441232793903;0.05053692178965097
A;-14.4;-0.05240298664824827;-0.020674111855253585;-0.07398020809668271;0.040127362219609886;0.2704492788983126;-0.04648439603322485;0.08958136557001772;0.04937090264860888
A;-14.3;-0.055531603357635184;-0.019109798135062306;-0.07386105960662182;0.04021636843717413;0.26726529894450124;-0.04556661722798916;0.08833885373439987;0.0489027770634296
A;-14.2;-0.05833952089665129;-0.01730768683550732;-0.07362346669141306;0.040421651931462854;0.26378890347215744;-0.044781092200165684;0.08842750627799578;0.04907532940854065
A;-14.1;-0.06083271725385586;-0.015314573854179336;-0.07325507274086984;0.04071470911356467;0.26008802949354415;-0.04411090397881123;0.08965282063918512;0.049767648056026736
A;-14.0;-0.06300691248817625;-0.013177327305038844;-0.07272070300385192;0.0410700671674622;0.2562170081959323;-0.043522503141033564;0.0918354489877693;0.05089360721497993
A;-13.9;-0.06485947817691429;-0.01095287794252009;-0.07198086630793821;0.04145573746748621;0.25224663907051337;-0.042978454983632286;0.09474867347607674;0.052337408102960836
A;-13.8;-0.06640410831489163;-0.008660320602246863;-0.07105256628709533;0.041860575354599305;0.24820471495366014;-0.042481194009289514;0.09831370371956982;0.05404190155931765
A;-13.7;-0.0676521918477917;-0.006309354864090899;-0.06995492311525098;0.042280018738450664;0.24410504628890628;-0.0420363709656848;0.10249779988470653;0.0559792109990811
A;-13.6;-0.06862411735113305;-0.0039343373192188835;-0.068705533645125;0.04269252271046575;0.24000052628221802;-0.041643298948404794;0.10714534934596909;0.05804085210308951
A;-13.5;-0.06934123222762789;-0.001566889645273406;-0.06732509419378196;0.04307818307519895;0.2359415060088983;-0.04130393863772275;0.11211141202311037;0.0601229897035509
A;-13.4;-0.06978658795402204;0.0007572927031187504;-0.06576314204675882;0.04342173089464474;0.23196761288505652;-0.04098148224612297;0.11728684084735264;0.06219153521850451
A;-13.3;-0.06993476834309842;0.002994261403205911;-0.06394734593555107;0.04370473208279613;0.22812366619809588;-0.040624064513776315;0.12253843094892058;0.06421346359366886
A;-13.2;-0.06977323826332782;0.005128285921751186;-0.061846394082782474;0.04392379997335283;0.22442335867054286;-0.040209880572372736;0.1278380366950227;0.06619702315115639
A;-13.1;-0.06928520958284068;0.007144319606088523;-0.059421614010410906;0.04407668132220621;0.22087873991932394;-0.039713902491030684;0.1331657504083097;0.06815974863889274
A;-13.0;-0.06847004897985531;0.008993205498875056;-0.05663625323841881;0.04413859700270262;0.21754163539485827;-0.039096036328829964;0.138332298053081;0.07002006391769733
A;-12.9;-0.06733927839538634;0.01063055674083735;-0.05347618677249155;0.0440859629647079;0.21445866042279693;-0.03832743175906517;0.1431523988822665;0.07168863424685767
A;-12.8;-0.06587703065367467;0.012001957225244553;-0.04987616743589296;0.043892281742804684;0.2116924961169424;-0.03735660228339954;0.14743073698003162;0.07308828288472835
A;-12.7;-0.0640748577552106;0.013056620923455498;-0.04578411468601651;0.04353244738650108;0.20929847103013532;-0.036137162585639704;0.15097756302700915;0.0741426192829735
A;-12.6;-0.061959824759244775;0.013810894123212236;-0.04125163789763153;0.04301684813467421;0.20725280966147608;-0.03469423888115353;0.1538467196703861;0.07487263253467358
A;-12.5;-0.059558445192504195;0.014300374137841132;-0.036343700313036464;0.04236666624797358;0.20551452707417628;-0.03306992333589642;0.15617302974445568;0.07533494187939649
A;-12.4;-0.05693140029476673;0.014554393352225858;-0.03117007080659917;0.041596868801070386;0.2040274577862249;-0.03130889037598683;0.158023462030072;0.07555028103099914
A;-12.3;-0.05414496444334027;0.014611885745520858;-0.02585575854173605;0.04072738843659085;0.20272432614963787;-0.02946619530072203;0.1594984525639518;0.0755522961468511
A;-12.2;-0.05119241057761226;0.014487492729852391;-0.020399568012630986;0.03976871767469792;0.20160312555459647;-0.027555846959244956;0.1606755030847431;0.07537692641097493
A;-12.1;-0.04806381738037757;0.014187461766303144;-0.014788364743758997;0.03872646737403862;0.20066956558372695;-0.025582133969294762;0.16159782013229584;0.07504688941933146
A;-12.0;-0.04475485708056581;0.013741766387864729;-0.00903563592834633;0.03762007102385656;0.19990904027184708;-0.023574321117869612;0.1624062547036207;0.07462465498634341
A;-11.9;-0.041256669181747085;0.013179062829884458;-0.003146802850920949;0.03646812157754553;0.19931057478679026;-0.02155897865684908;0.16323889154678017;0.07417188345579895
A;-11.8;-0.03764542664725479;0.01251771853432082;0.00275832801094289;0.03527703481283595;0.19881146598222088;-0.01956890935773581;0.16408833206837503;0.07367972398561484
A;-11.7;-0.03402752474902293;0.01177888011617334;0.008514303955565516;0.034053208290382386;0.19832734942383645;-0.017645971109484737;0.16492559983953026;0.073126938908457
A;-11.6;-0.030452448988576464;0.01096735747695643;0.014051181989814587;0.0327954157236352;0.19782329224245743;-0.015803647293436196;0.16570739510786403;0.07249032684365808
A;-11.5;-0.026977636702552488;0.010086512364492428;0.01928910066721201;0.031500742080880606;0.197259301792446;-0.014055035813334005;0.1663732615290323;0.0717387408623642
A;-11.4;-0.02367958814505844;0.009167225705453141;0.02409865483697793;0.03018471706355008;0.1965694739154369;-0.0124470803302148;0.16697631302915728;0.07088834429629465
A;-11.3;-0.0206103425486468;0.008240010340118786;0.02838608266459719;0.028864291815264842;0.19570671158658914;-0.011022097305171119;0.16759584958174578;0.06996772659431194
A;-11.2;-0.01787332777900641;0.007338404579070534;0.031982248987501904;0.027553729563024376;0.1945801036208712;-0.009832486373421379;0.16826086578078936;0.06898194148167036
A;-11.1;-0.015560569564856408;0.006494109515753799;0.03473586135888951;0.026267305389923834;0.19311018026741955;-0.00892743118460837;0.16900695316299874;0.06793914410903312
A;-11.0;-0.013625149146187177;0.005699580385774006;0.03672676916493067;0.025001234962088503;0.19134134967028782;-0.008289904769795076;0.16983839195803707;0.06684062574054295
A;-10.9;-0.011991176526411351;0.004935892707068845;0.03808627250957741;0.02374462088911855;0.18934161722511256;-0.007883779318895723;0.17073285390630577;0.06567857436062141
A;-10.8;-0.010565559380968814;0.0041877473486513495;0.038965755221910925;0.022494770404200004;0.1872048128279431;-0.007680410924342684;0.171726148473212;0.06446882156495448
A;-10.7;-0.009234959856175173;0.003434659895606096;0.039550021255243095;0.02124664418229205;0.1850424509277957;-0.007641815079792114;0.1728511929894525;0.0632269165687358
A;-10.6;-0.007987316627210639;0.0026711851303877765;0.03986987099205397;0.019991791231282363;0.18285802272529672;-0.007752387785659121;0.17406766846818922;0.06193749731555798
A;-10.5;-0.006829665611250313;0.001896469636708531;0.03992507147480939;0.018724214242991977;0.18063945094594214;-0.008005078720592085;0.17533904758034424;0.06058652728930536
A;-10.4;-0.005721382420778021;0.0010975524651106738;0.0397941051178341;0.017430756057634333;0.17841233973766624;-0.008369107227386596;0.1766110379955279;0.059153457352962846
A;-10.3;-0.004628910024033317;0.000262366552195914;0.039544953443427566;0.016098138380641558;0.17619493370098205;-0.008815027579758716;0.17782518861854335;0.057616589426157105
A;-10.2;-0.00347725394404641;-0.0006192194380538751;0.039298464938105404;0.014730246778527523;0.17407618851985074;-0.009326827221170841;0.17904268720263694;0.05600291350834663
A;-10.1;-0.0021633433029339955;-0.0015592187035213811;0.03921577579738855;0.013335017302185115;0.17217931421079236;-0.00988673774447113;0.18036093974296552;0.054353610346593584
A;-10.0;-0.0006586550149263459;-0.002559554978676104;0.03934584830295673;0.011917354478595321;0.17054557512144886;-0.010491831747045932;0.1818258800039274;0.0526913968267797
A;-9.9;0.0010672195598599998;-0.003621702127844628;0.039739542530514704;0.010484147744795003;0.16922157876176502;-0.01114097125074176;0.18349508502403555;0.05104421915318458
A;-9.8;0.00311880446355417;-0.004758590704693866;0.040563118244539176;0.00903617715879168;0.1683144196536377;-0.011805450902705683;0.1854212237598123;0.04943343456350746
A;-9.7;0.005583827480935;-0.005981110517732979;0.04195859198329721;0.0075708878710551986;0.16790592832915419;-0.012456115605839368;0.18762939431143177;0.04786931960921681
A;-9.6;0.008585144960475688;-0.007305845333774208;0.04411988480525064;0.006092756628114593;0.16813214328920623;-0.013062529160764225;0.19019964732024786;0.04638641066500693
A;-9.5;0.01223676166038068;-0.008746737236950963;0.04722676355162747;0.004605632212249411;0.16911562439878924;-0.013595566338208354;0.1932027645856067;0.04501508534267007
A;-9.4;0.01647675038650398;-0.010292696482408381;0.05119353005823868;0.0031057188113701173;0.1707809982899029;-0.01406163356328305;0.19658977064550864;0.04374272014944758
A;-9.3;0.02119479054202955;-0.011927394058209195;0.05586206851952724;0.0015889013977661293;0.17300552554929194;-0.014477794359067264;0.2002877036066799;0.04255065977464412
A;-9.2;0.026297185568545878;-0.013628147440382321;0.061094459453143735;4.8538218241134246e-05;0.1756609373734701;-0.014855879406665995;0.20421093676986946;0.04140758992393234
A;-9.1;0.031665431619106954;-0.015368752545585451;0.06671532942226843;-0.0015231138775630981;0.17859064153360826;-0.015212417755659846;0.20825618897207399;0.040275971311170444
A;-9.0;0.03724842465541922;-0.017145300486260062;0.07265755581108468;-0.0031239688746644845;0.1817531685157805;-0.01555241875673774;0.21240441500618967;0.03916260053919274
A;-8.9;0.04301977542881019;-0.018955944350130594;0.0788900091047946;-0.0047498736339992575;0.18513422506194122;-0.015876344312689472;0.21665495152623393;0.038080726475855364
A;-8.8;0.048887351328962936;-0.02079359686383153;0.08528532664303512;-0.006400946542854946;0.18864925641483943;-0.016197043501526398;0.22096233137214316;0.0370291648215888
A;-8.7;0.05476423966628641;-0.022652213402766463;0.09172387571254337;-0.008076072068990747;0.19222219267056673;-0.01652642476248145;0.2252873828259947;0.03601000299633572
A;-8.6;0.06059782519406287;-0.024505121406184216;0.09812195926699552;-0.009777354551719242;0.19575763716192185;-0.016869665366896047;0.229570065248355;0.03499676122501061
A;-8.5;0.06632832409033185;-0.02631814825301948;0.10438134146387235;-0.011510070164893804;0.19913314759126788;-0.01723294202724235;0.23372907090520822;0.03394855978556066
A;-8.4;0.07194366721599632;-0.028072989241179513;0.11048007087550804;-0.013270640625759889;0.20231238446118116;-0.017613327671143875;0.2377431776885821;0.03285771113664815
A;-8.3;0.07743786771319616;-0.029749202774496553;0.11640315668152823;-0.015055161511180692;0.20526018361818466;-0.018006840657256884;0.24159147212092602;0.03171451216620369
A;-8.2;0.08271857547985739;-0.031321956897346404;0.12201228111703522;-0.016871765264169447;0.2078382339851892;-0.01842466708291246;0.2451806458553243;0.030481663079597432
A;-8.1;0.0876926128936324;-0.03277365165192414;0.12717234891189833;-0.01872761264753553;0.20992270928875456;-0.018877575764543852;0.24842657645690647;0.029130814638488545
A;-8.0;0.09226814752791945;-0.03406978765086688;0.13173850103215656;-0.02063007777349224;0.21135920949956155;-0.01937795550621635;0.25122747432576187;0.02761508361942866
A;-7.9;0.09635604128613728;-0.035180470669240016;0.1355726024025925;-0.022586880013498067;0.2120025145933333;-0.019936914461178734;0.25348517452113306;0.02589113255049469
A;-7.8;0.09997741842533436;-0.03611591444847839;0.13871573838671214;-0.02458612073590949;0.21191125786262432;-0.020543226284113647;0.2552391587197409;0.02399373702186125
A;-7.7;0.10319174111509355;-0.036892578094071204;0.14126550228953416;-0.026608017307006016;0.21120321762249628;-0.021179204273577223;0.2565719694236783;0.02197840793698269
A;-7.6;0.10602613368311253;-0.037541089982872755;0.14328547224092425;-0.02864456416283101;0.2099683690880667;-0.021828676283424553;0.257531781272724;0.019892326269098426
A;-7.5;0.10852290024440592;-0.0380980189559299;0.144863958179144;-0.03068501937815693;0.2083254375561827;-0.022472523123414856;0.25818593216659025;0.017793524668779703
A;-7.4;0.1107190494739454;-0.03855639543036293;0.14604945943852687;-0.03271068412915046;0.20632862190179768;-0.02310074229882142;0.2585808756217203;0.015709180039364945
A;-7.3;0.11263749562913095;-0.0389048429138672;0.1468677267201075;-0.03470659308403867;0.20400385539572685;-0.023705884602557514;0.2587416824760673;0.013654017357284332
A;-7.2;0.1143428754295659;-0.039142899913435336;0.14740939938978492;-0.03664730931416038;0.20145475151603787;-0.024274089676706634;0.2587517748590855;0.011674279123685238
A;-7.1;0.1158996820421665;-0.0392675139202705;0.14776258266363662;-0.038507360770918986;0.1987798206262843;-0.02479206450100202;0.25869168642367857;0.009812921981637857
A;-7.0;0.11730651976667072;-0.03931322245808211;0.14795331072630002;-0.04029192178867014;0.19602040150963962;-0.025246423913299676;0.25856013469716466;0.008092064003672128
A;-6.9;0.11855031366368163;-0.0393302242055773;0.14800339071712898;-0.04201312926780432;0.1932208483575355;-0.02562266430986737;0.2583461031430643;0.006536679445170002
A;-6.8;0.11961750451234288;-0.03933565779798798;0.14790801320478497;-0.04367683407906142;0.19037875943814697;-0.025912171987652943;0.25802378186910246;0.005147882194671105
A;-6.7;0.12048728669963893;-0.039350312632368656;0.14765491411392606;-0.045292670599942575;0.18748336401640664;-0.026106744525791203;0.2575565321211579;0.003922524761218682
A;-6.6;0.12117906757833374;-0.039413894575714536;0.14730236141109643;-0.04685725775233074;0.18462437759555428;-0.026193097913207897;0.25698517336995863;0.0029050047726251194
A;-6.5;0.1217238164202401;-0.039554314160749726;0.1469152694330944;-0.04835996295676903;0.1818968873694189;-0.026159677154968808;0.2563661165539539;0.0021414315283472263
A;-6.4;0.12213195530248733;-0.03982639646336317;0.14655035525677995;-0.04980705507086203;0.17938672011187506;-0.025991731697865728;0.25572122073228787;0.0016707803050035608
A;-6.3;0.12241535146381022;-0.04027922085881919;0.14626194194764341;-0.05120170030726534;0.17717852169921944;-0.02567671820778772;0.2550778929240014;0.0015320849780042778
A;-6.2;0.1225847509679685;-0.04088060112027225;0.14603911202940267;-0.052529586724570976;0.1752477948372091;-0.02521606980398383;0.2544344584544813;0.0017115912257628096
A;-6.1;0.1226453459831447;-0.04158113378156614;0.1458492056112224;-0.05377743262257795;0.1735298769739968;-0.02461448069365746;0.253765145446776;0.0021729918109789637
A;-6.0;0.12261318589225745;-0.042324543426604855;0.145671177423222;-0.05491591402023932;0.1720004906847601;-0.023882355263487032;0.25309804449389883;0.002908643632568264
A;-5.9;0.12250478035126289;-0.04304314869507486;0.1454754854072231;-0.055913292846748064;0.1706207104962747;-0.023032372434015347;0.2524579334121677;0.0039033485718258376
A;-5.8;0.12231814071840308;-0.04372663290714218;0.1452487229605568;-0.056774488204350604;0.16934571019749178;-0.022064585382707502;0.2517980527004209;0.0051210404524448805
A;-5.7;0.12204885643125074;-0.044376797810955715;0.1449838449912484;-0.057507176218724254;0.16814519451025323;-0.020979255940635877;0.2510759593220788;0.006532544939581442
A;-5.6;0.12169614147648566;-0.044965999825702596;0.14465430956761072;-0.05811526667165445;0.16694558638758128;-0.019777225655912556;0.25023134153205895;0.008085883872142041
A;-5.5;0.12125704058669484;-0.04547148278379254;0.1442342615915546;-0.05860557946875744;0.16567333849551424;-0.018459756505725178;0.24919930768467058;0.009727260743997768
A;-5.4;0.12074082870325231;-0.04585238475936393;0.14370682150558434;-0.058947045665710185;0.16433774533558676;-0.017045802122895193;0.24803700199941758;0.011469282245093915
A;-5.3;0.12016414307851786;-0.046052377683698964;0.14305442566546578;-0.059094459187457815;0.16296465667999982;-0.015558947276276935;0.2468387245656558;0.013341245953094827
A;-5.2;0.11952832227544441;-0.04606046407535214;0.14227223721653992;-0.05903124529347359;0.1615745702198561;-0.014016981236720572;0.24564244875735142;0.015352750798351522
A;-5.1;0.11883457373762063;-0.045865765253894075;0.14135600523501246;-0.058738019616566106;0.1601971489420988;-0.012440295821922742;0.24449831841212433;0.017520164586140474
A;-5.0;0.11810384769554005;-0.04540708380813374;0.1402858604924191;-0.05818217371410572;0.15881838270110293;-0.010841896126887018;0.2434545031441191;0.01984345611529026
A;-4.9;0.11735547259990842;-0.04463207094523369;0.13904470508041644;-0.057342211824112255;0.15740884580280756;-0.009229546538952693;0.24252923711864405;0.02230726823720186
A;-4.8;0.11660706658725406;-0.04347191710784326;0.13760448324483043;-0.05617577691460163;0.15596847497462374;-0.007625692571806564;0.24180231799224927;0.024926361594918234
A;-4.7;0.11587806630622222;-0.04186217841960538;0.13594182958817402;-0.05464545958501432;0.15449389076815212;-0.006048909139441339;0.24134275583559006;0.027710667658962684
A;-4.6;0.11515677757304132;-0.03984505726333509;0.1340696756241737;-0.05278134390365352;0.15296939950956645;-0.0045015535501171655;0.2410833597863915;0.030621419291327
A;-4.5;0.11441635720647358;-0.037494582719761915;0.13200552855844006;-0.05063013509406211;0.1513835072756864;-0.0029877663153490275;0.24093112456628418;0.03361314027215201
A;-4.4;0.1136582766525498;-0.034865832230789984;0.12978486989999816;-0.04823977796293999;0.14970632075056667;-0.00148997445509913;0.24077540386567176;0.03662799564270802
A;-4.3;0.11287960908451389;-0.03202902220782011;0.12744824322374448;-0.045668192744064307;0.1479056578079465;1.1666871020832303e-05;0.24048589923653818;0.03960083869424391
A;-4.2;0.11204797502408326;-0.029027592808483327;0.12498639398047473;-0.04293760818190062;0.14598574453218127;0.0014942589657040983;0.24003709485440705;0.04251474527310517
A;-4.1;0.11113734757515559;-0.025889316322214917;0.12238668570568478;-0.04006122575340232;0.14395431725561902;0.00293437911879435;0.23942534818259809;0.04536165939874248
A;-4.0;0.11010311933170325;-0.022684800504715774;0.11964442378746742;-0.03707599004193973;0.1418141627672833;0.0043076086083084775;0.23859573309552573;0.0481136322232274
A;-3.9;0.1088992623297953;-0.019482116943345673;0.11675154356479833;-0.034016695452381285;0.1395710456135868;0.005587336067692128;0.23750234260611247;0.050747216756707125
A;-3.8;0.10755472938951893;-0.01630482676927336;0.11375289246005149;-0.03091994293708833;0.1371987367431231;0.0068046003725856785;0.2360661104860542;0.05321787312535431
A;-3.7;0.10611806094444187;-0.013174165420341666;0.11071336049261493;-0.02782942042105052;0.13465762671622095;0.008008661112341997;0.2341798811518716;0.0554664130072533
A;-3.6;0.10461207990317423;-0.010092386462543956;0.1076562466144555;-0.024765181083674648;0.13193434772156465;0.009217565835380803;0.23181645169948162;0.05747214281987123
A;-3.5;0.10306812260223897;-0.007055265632461172;0.10460992912193223;-0.02174645615749693;0.12901355336641807;0.01045550299718423;0.2289494187749881;0.059214565972051325
A;-3.4;0.10149995782171484;-0.004114825566035485;0.10162149247027319;-0.018822924213986347;0.12586168390722996;0.011747245064996914;0.22546140280153448;0.06063053562067733
A;-3.3;0.09990217996320361;-0.0013299794460079895;0.09872123310999559;-0.01604114400242551;0.12245302171227923;0.013101275018579717;0.22124948457649296;0.06166418812394969
A;-3.2;0.09831199519531086;0.0012564531282510671;0.09597636726484726;-0.013454109220925048;0.11874906691182918;0.014562966295994517;0.21618745360079217;0.062250132517291945
A;-3.1;0.09675833708821191;0.0036003193958267232;0.09344579806534625;-0.011112076115657565;0.11471314731861249;0.016169637733737918;0.21015521009059235;0.06232517330276899
A;-3.0;0.09520259226966132;0.005698726407509902;0.09108433984348885;-0.009011036762612612;0.11036703348246224;0.01788084433453463;0.2032161843353819;0.061913259433318046
A;-2.9;0.09359999668457597;0.007569910570728311;0.08882567717262457;-0.007130359158964872;0.10575041160721455;0.0196445017861695;0.195492597361957;0.061068314179483885
A;-2.8;0.0918748917651877;0.009200701832123848;0.08659035908513779;-0.00545630057133728;0.10088841145540073;0.021384565948936007;0.18706147795547867;0.0598159362681292
A;-2.7;0.08994186708042484;0.010583536339390243;0.0842841214260055;-0.003967386494286629;0.09581489953986733;0.023013951465817417;0.17802638650535485;0.05819450278780014
A;-2.6;0.08780474762394608;0.01174282475725974;0.0818919619075329;-0.0026568234860349094;0.0905559230247599;0.024527229952600926;0.1684678545166136;0.05624407936745435
A;-2.5;0.08547781679226052;0.012698612320713565;0.07941401247294877;-0.0015237541738066795;0.08512793992140821;0.025929689755488372;0.15843962842895287;0.05399183429817622
A;-2.4;0.08295400951112697;0.013487646327497771;0.0768138781264529;-0.000549831077666596;0.07957478533381934;0.0272031109872648;0.14807225327215434;0.05150288791245217
A;-2.3;0.0802335018956466;0.014149676443453885;0.07406163479036909;0.0002832411728244111;0.0739392951574942;0.028335352047029083;0.13749418418401316;0.04884245806643772
A;-2.2;0.07724496627276611;0.014656284952065946;0.07109447558461568;0.0009826944370203705;0.06822360858712706;0.02925474688319607;0.12672377941178503;0.04600407087756775
A;-2.1;0.0738854533354889;0.014959078471100895;0.06782714665508394;0.001555619673885289;0.06242537491863498;0.0298625944019828;0.11576503471559896;0.0429681178687531
A;-2.0;0.0701227632795538;0.015038763574420244;0.06423638927210984;0.002002729804156722;0.056537052196688364;0.030122607318678885;0.10460946255625725;0.03972080070306827
A;-1.9;0.0659200551949386;0.014869887206243604;0.06029820502580563;0.0023239654149112;0.05054610309157059;0.02999444981234589;0.0932351042908266;0.03624012816433275
A;-1.8;0.0611906200550143;0.01442898349836863;0.05592617745195927;0.0025320297954483095;0.044479485094778504;0.029394195049913918;0.08171426103630619;0.032546348645043466
A;-1.7;0.05587007722278692;0.013708434790668633;0.05104797288506813;0.002640197495974661;0.038373627718547354;0.028257776780335586;0.07014129147389347;0.028675790973910154
A;-1.6;0.04985219993443657;0.012671807550695746;0.04556487865467673;0.0026648765659915696;0.032244982355176255;0.02648170731051458;0.05856517918027926;0.024631833138490933
A;-1.5;0.04304032210524156;0.011286999879842163;0.03938537499035011;0.0026206657409328926;0.026114963304857852;0.02397227414224945;0.04704234866328072;0.020423798192248377
A;-1.4;0.0355046964190624;0.00959092430260089;0.03256416316173372;0.0025059018072770556;0.019996185301018876;0.02078413733397033;0.03560637135861189;0.01607948293723993
A;-1.3;0.027360275445530213;0.007636336001175081;0.025198097612475934;0.0023167028286170677;0.013889595321296966;0.017009438135120902;0.024265478324214662;0.011620577612177385
A;-1.2;0.018709595153914904;0.005474233880958579;0.017365006843072628;0.0020409856607530585;0.007831588185259086;0.012738874042578452;0.013089557396042117;0.007101529281479557
A;-1.1;0.009679534198917317;0.0031659183194188145;0.009163874213187206;0.0016648013709943399;0.001858062643030678;0.008084714943598748;0.0021464255287906298;0.0025800344932926933
A;-1.0;0.00032969464798426884;0.0007373276140150153;0.0006477474161794561;0.001196634468727531;-0.004043799679469551;0.0030844242071967898;-0.008583566570489864;-0.001949545385931728
A;-0.9;-0.009304336048145956;-0.0017977820677890222;-0.008150765442699104;0.0006459040553394857;-0.009883387167458402;-0.0022447322136960324;-0.01911744630882861;-0.0064960943937233395
A;-0.8;-0.019122462754944003;-0.004395210038724784;-0.017142105063049584;2.0843925354618875e-05;-0.015681589708544053;-0.007831794693428318;-0.029487268728205507;-0.011064955086435013
A;-0.7;-0.029029617936890517;-0.007014311267663942;-0.02624011399403514;-0.0006690223819587615;-0.02146139210084108;-0.01361089254061687;-0.039731273236580655;-0.01566622135868556
A;-0.6;-0.038963747730769605;-0.009629428681740215;-0.03540254041238189;-0.0014421341713157787;-0.027161038098694412;-0.01951815741574192;-0.04975263980706135;-0.02023863826139749
A;-0.5;-0.04885477097419155;-0.012209301460146094;-0.044585288688884894;-0.0023257220416583735;-0.03269434704092511;-0.02547501746939629;-0.05941156925430757;-0.024694710871466796
A;-0.4;-0.058679489626485726;-0.014749169974035858;-0.05377646897543098;-0.0033298605448779384;-0.03801060927553479;-0.031456059373718315;-0.068637721818817;-0.028996529960384265
A;-0.3;-0.06842086863382946;-0.017248347356868976;-0.06297047937627909;-0.004467665483349315;-0.04304989180901053;-0.03743813862651768;-0.07734841857965069;-0.033100613075892404
A;-0.2;-0.07797372956517457;-0.019654173230948757;-0.07208755344329987;-0.0057526599952133495;-0.04776298857121475;-0.043324718234563075;-0.0854525908675452;-0.036941204894393564
A;-0.1;-0.08723081038692815;-0.021911892540494193;-0.08104257213054655;-0.0071891743161076604;-0.05212260176054073;-0.04902508850883658;-0.09289298463702433;-0.0404718108529627
A;0.0;-0.09609060555205584;-0.023977030334839;-0.08976045904800234;-0.00880306253477503;-0.05605313358976627;-0.05443554863309652;-0.09954685809628483;-0.04361027905690751
A;0.1;-0.10445270415384478;-0.025803474411167926;-0.09816582904965543;-0.010614908412511781;-0.05948879181640443;-0.05945725670337554;-0.10530367392250106;-0.04628203111334539
A;0.2;-0.1123226106630062;-0.02740074206227483;-0.1062573626779928;-0.012600945467790226;-0.062452652351447924;-0.06411576249518403;-0.11021832922212127;-0.048528652078461576
A;0.3;-0.11974602771197596;-0.028805338671606506;-0.11406295614420348;-0.014731924094336435;-0.06497941806723251;-0.06847480402153705;-0.1143820995632776;-0.05042147282864562
A;0.4;-0.12672642234858955;-0.03001210220614947;-0.12157600635666821;-0.016960500952343693;-0.06713546972408668;-0.07257607711859793;-0.1178954260186611;-0.05202844864616196
A;0.5;-0.13328194155303574;-0.031023638543495657;-0.12879990969677024;-0.01923287944368912;-0.06900053605093248;-0.07647868686360537;-0.12088351791664387;-0.05343468889425562
A;0.6;-0.1394453923533021;-0.03188480888502898;-0.1357533746919133;-0.021549629143823523;-0.07055406537532516;-0.0802118909793772;-0.12336897805671398;-0.0546724577844282
A;0.7;-0.1452360017011447;-0.03263283008970763;-0.14244500937755689;-0.023917219423545966;-0.07176299515871243;-0.08378857116466643;-0.1253493032340156;-0.05575785719655446
A;0.8;-0.15071496248435867;-0.03332981176670913;-0.1489149535679335;-0.026328780840236377;-0.07262401618901926;-0.08726790546322372;-0.12688661934206102;-0.0567498203114134
A;0.9;-0.15594521045787335;-0.034041478646352985;-0.15520422287928515;-0.02878154024980084;-0.07312666193248862;-0.0907071426998125;-0.1280353524440816;-0.05770401985460083
A;1.0;-0.16089763815281888;-0.03473334799142602;-0.16127999476268418;-0.031227057759674715;-0.07333461730295543;-0.0941198226131541;-0.12885960691708842;-0.05866381879315963
A;1.1;-0.1655224977255001;-0.03534245366980926;-0.16709332155712975;-0.033597024016435384;-0.07334707591724854;-0.09751715428042607;-0.12944788956862663;-0.059680413774787056
A;1.2;-0.1697880012161015;-0.03584714158333124;-0.17260773776506877;-0.035867109207862846;-0.07318465237625027;-0.10089093769159918;-0.12981359544798288;-0.06077134122186045
A;1.3;-0.17365301256398347;-0.036215490129605676;-0.17777914460710065;-0.03800941630153787;-0.07287400541728051;-0.10422779907070501;-0.12996783401137968;-0.06195132138398485
A;1.4;-0.17711034802468006;-0.036423718233855595;-0.18259511473285972;-0.039966556752583315;-0.07250411017572844;-0.10756704890751001;-0.13002626854255528;-0.06328947029349319
A;1.5;-0.1801726340232248;-0.03647264961733665;-0.18705918306765223;-0.04169565087978189;-0.07214154935964334;-0.11095346924156901;-0.1300972624023311;-0.06485396647192232
A;1.6;-0.1828161199052465;-0.03631286501366038;-0.19114476907398892;-0.04312423781243613;-0.07190069729050652;-0.11442475244945838;-0.13030201895048954;-0.06671550208010846
A;1.7;-0.18502221152097942;-0.03590280522989264;-0.19483053326557176;-0.04418634500219021;-0.07188734816753417;-0.11801821286228042;-0.1307591860125612;-0.06894261110127342
A;1.8;-0.18681718208396614;-0.035305031353859206;-0.1981253275172108;-0.04492226892792317;-0.07201930794014011;-0.12172442439454523;-0.13141608139736416;-0.07152771227283239
A;1.9;-0.18823181737716066;-0.03460035354505475;-0.20103882495340475;-0.04539853931459081;-0.07216592130914457;-0.12551759639602578;-0.13216191939276545;-0.07443757749915125
A;2.0;-0.18931125801499338;-0.03388206276065464;-0.20360118122062776;-0.045679434431714405;-0.07221387252273104;-0.12938685991815424;-0.13294261479620406;-0.0776583607275807
A;2.1;-0.19010841586319227;-0.033258715800576155;-0.20584809013644279;-0.04584453775290864;-0.07202400058237401;-0.13331538034108492;-0.13368086542595048;-0.08116557307370798
A;2.2;-0.19062690216303935;-0.03275469276666776;-0.2077680911059998;-0.045918859390495115;-0.07153764671760054;-0.13729050466858572;-0.13430126708060275;-0.08494201626418807
A;2.3;-0.1908610992997346;-0.032374858520554994;-0.2093453234148095;-0.04591158832206599;-0.07072683901502508;-0.1413058179732931;-0.13475479093945086;-0.08897974543237464
A;2.4;-0.19082896192117182;-0.03217057633640419;-0.21057521599283824;-0.04587304101270018;-0.06948772441404127;-0.14533647042377895;-0.13492103461763527;-0.0932428086593653
A;2.5;-0.1905438022041812;-0.03218410555408102;-0.2114503902190803;-0.04584889771005596;-0.06772536103744553;-0.1493586005591241;-0.1346813236618658;-0.09769508835824947
A;2.6;-0.1900366953871746;-0.032474096916836004;-0.2120034261713375;-0.045878420720942614;-0.06538886427236701;-0.1533734614597484;-0.13404989090313268;-0.10233903722032522
A;2.7;-0.18935553865877086;-0.03312301808295448;-0.21228520727724742;-0.04601162957972882;-0.06241817932251603;-0.1573853329651338;-0.13306594812645756;-0.10718320520876556
A;2.8;-0.1885058101448669;-0.03414016952378862;-0.21231110993598357;-0.04625653885269365;-0.05881660425292612;-0.16140548239469465;-0.13176371585816327;-0.11223780381357074
A;2.9;-0.187493058288414;-0.03553197295146582;-0.2121004175369121;-0.046618348511600516;-0.054597588403031416;-0.16544800472283816;-0.13019408783139497;-0.11751652760385944
A;3.0;-0.1863812189440086;-0.037404673880056194;-0.2117003613678179;-0.04716588818439593;-0.049656543190697455;-0.16950236176857958;-0.1283285908371461;-0.12300762467934945
A;3.1;-0.18522987908388355;-0.03985597690957832;-0.21114837317203428;-0.04796498690369688;-0.043886878057748824;-0.17355484472701077;-0.12611216341134313;-0.1286925636218781
A;3.2;-0.18410431662908433;-0.04299132944742112;-0.21050407498165669;-0.049085969817788566;-0.03719633586200999;-0.1775964258039857;-0.12354841855402299;-0.13456105381300532
A;3.3;-0.18307202568163472;-0.0469156334633718;-0.20982487307670183;-0.05059723408870731;-0.029493267336892615;-0.18161763150593258;-0.12063320610598272;-0.140601820110545
A;3.4;-0.18210309289185123;-0.05156626744216197;-0.20908372132915343;-0.05246979719385614;-0.020826736097549592;-0.1856285726043425;-0.11734095004124878;-0.1468092025222898
A;3.5;-0.18113191763193992;-0.05681930092394172;-0.2082315601975484;-0.05464141228627106;-0.011304163567936065;-0.18964634103291766;-0.11366080142622703;-0.15317957369111834
A;3.6;-0.18014592295859;-0.06262591967840159;-0.20723354280729556;-0.0570809911143062;-0.0009613950351194944;-0.19367846407477396;-0.10952829095973105;-0.15970605152969508
A;3.7;-0.17911922394605462;-0.06891322468999572;-0.20604344210378933;-0.0597437624458772;0.010145307062262354;-0.19773488495235858;-0.10487562656568361;-0.16638168185295488
A;3.8;-0.17800215385505247;-0.07558053972899792;-0.20464513018200314;-0.06258743043005222;0.0219125094548831;-0.2018256632005273;-0.09974067588647717;-0.1731967080027097
A;3.9;-0.17676542838930231;-0.08255606042477481;-0.2030383907756672;-0.06558412082432508;0.03425556844161903;-0.2059567094207222;-0.09416826396909173;-0.1801402831716823
A;4.0;-0.17532392479527203;-0.0896837949588063;-0.20118382605758445;-0.06866420313175414;0.04702801767739295;-0.21014538689204665;-0.08819687759530037;-0.18720367566853646
A;4.1;-0.17359477777477839;-0.09680876270198979;-0.19904679649324386;-0.07175891671893275;0.06007944586484282;-0.21440756388155124;-0.08187458901749078;-0.19437691091741804
A;4.2;-0.17163369699876707;-0.10396778684622099;-0.19663129678865765;-0.0748716485116363;0.07342733411871372;-0.2187385479416153;-0.07513585084486785;-0.20165091138097946
A;4.3;-0.16952248619831245;-0.11123440301739063;-0.19394026523523156;-0.07801768291881572;0.08712946773028296;-0.22313154497226195;-0.06787126261192711;-0.20901795321108718
A;4.4;-0.16733155580743464;-0.11866294285995682;-0.19100418978278366;-0.08121343479790699;0.10119982756077395;-0.22757331177835605;-0.06005806376360834;-0.21646261484326068
A;4.5;-0.1651489332656979;-0.12633075255453718;-0.18786053450224127;-0.08448384461500069;0.11566966098432108;-0.23204738322534046;-0.05166570148645544;-0.22396927637798747
A;4.6;-0.16297337853753113;-0.13420117359139194;-0.1844775202482758;-0.08780290633021881;0.1305187414345914;-0.23656202492846168;-0.042613790123826156;-0.2315306593440294
A;4.7;-0.16077068745511447;-0.14219297529524155;-0.18081700843382453;-0.09112997595863881;0.1456883400241047;-0.24112905752325053;-0.03285217666010709;-0.23913737090635045
A;4.8;-0.15858374011557963;-0.15032347209493135;-0.17686019302070832;-0.09445444359981625;0.16119542802448183;-0.24574985579146924;-0.022278465573976725;-0.24678436529714531
A;4.9;-0.15643814471619866;-0.15858963549673444;-0.17258407645600027;-0.09776056762605467;0.1770441269112295;-0.25042798198572536;-0.010799936790055753;-0.25446568087849375
A;5.0;-0.15432150690217483;-0.16693069860307475;-0.168025037979608;-0.10103265373700321;0.19313037273389888;-0.25515172540995534;0.0014757237089373376;-0.2621539820223875
A;5.1;-0.152241931047568;-0.17530652683482195;-0.1632505055323028;-0.10426599013627236;0.20933837275447864;-0.25989894047774653;0.014384383479374208;-0.26981691602621627
A;5.2;-0.15010166549780823;-0.18355939991327475;-0.15826924187426972;-0.10742052315502537;0.22551196458548972;-0.2646716499409396;0.02779085670667758;-0.2774246965826981
A;5.3;-0.14779656729998436;-0.1915221556662834;-0.15309803410104283;-0.11045557591312516;0.2414787986604825;-0.26946963955128256;0.041530863336704194;-0.28494446198785717
A;5.4;-0.14540791613438842;-0.1992446111869528;-0.147813720177858;-0.11338587075413908;0.25719149741756553;-0.2742635749815361;0.055498313901408025;-0.292354906457839
A;5.5;-0.1430168906618139;-0.20678141274039952;-0.14248149234202145;-0.11622584171187711;0.2726212151222551;-0.27902791132989124;0.06961837232377466;-0.29963953395514675
A;5.6;-0.14071692599072705;-0.2141905971052669;-0.13720277143109083;-0.11899561721458252;0.2877008570998063;-0.28372386326683463;0.08373417087497881;-0.30676936868188065
A;5.7;-0.13861140582285092;-0.22154362032845043;-0.13208114705383345;-0.12171870986719746;0.30237382941259305;-0.28831166089666604;0.09769419750317798;-0.31371781662289067
A;5.8;-0.13654374041373796;-0.22863312859336027;-0.12707535700459438;-0.12434022193593819;0.31650507998944644;-0.2928127200509114;0.11143039623875062;-0.32046680236604974
A;5.9;-0.1342755365971211;-0.2351596873521169;-0.12210710824981419;-0.12678032741607925;0.3299198919362709;-0.29726399457623964;0.12487841154416124;-0.326995479777481
A;6.0;-0.13170386966416636;-0.24098523786489245;-0.11714232371333377;-0.1289996510423581;0.3425378883559427;-0.3016832415892572;0.13800981817415092;-0.33329846842547184
A;6.1;-0.1286993124647111;-0.24594575654672823;-0.11213030159671966;-0.13095148635876708;0.354276180582791;-0.30609503661084103;0.15080957230190695;-0.3393727620491678
A;6.2;-0.12512993018163066;-0.24984937460616852;-0.10706109433957245;-0.1325860503429226;0.36497165660174513;-0.31050552499565365;0.16315435930851496;-0.3451846667357783
A;6.3;-0.12093405671546265;-0.25258050339441596;-0.1019601223897304;-0.13387362263265512;0.3744863518471213;-0.31490537653577233;0.17490659378336915;-0.3506998066397804
A;6.4;-0.11589763027703359;-0.2538667687860512;-0.09677334162513329;-0.13474422081485837;0.38264349102707307;-0.31931965178073307;0.1859668364044147;-0.3558895561141737
A;6.5;-0.10983913145264435;-0.253470357333903;-0.09146176841375553;-0.13513609159009388;0.3892770727873822;-0.3237658863553876;0.19623199233168886;-0.36072372023658605
A;6.6;-0.10290861655799777;-0.2515414638589135;-0.08609968531251422;-0.13508339342555775;0.3944351156487578;-0.3282136846400987;0.20566991017688796;-0.3652080086902769
A;6.7;-0.0953118069693133;-0.24830774387195031;-0.08076858889816041;-0.13463974373687204;0.3982322947889676;-0.3326300131512503;0.21429161379251926;-0.3693648853292606
A;6.8;-0.08733821376747297;-0.24405946974581116;-0.07561202314693638;-0.1338720718195523;0.40074598301913333;-0.3369500336439457;0.22203750123833377;-0.3731873610122447
A;6.9;-0.07932525097312126;-0.2391440043654116;-0.07078974495666479;-0.13286154980449716;0.4020858740820632;-0.341102021897449;0.22885845402201888;-0.376673945318867
A;7.0;-0.07129774416548873;-0.2336080537966705;-0.06629599143153886;-0.13161865129924788;0.40232176266787967;-0.34508953792303076;0.23479522625619076;-0.3798496554440014
A;7.1;-0.06323527428425457;-0.2274465982757663;-0.06210797603277474;-0.13014063274574816;0.4014962481623563;-0.34892153615322785;0.23988338282235588;-0.382732290724932
A;7.2;-0.055221367810111666;-0.22078229984905207;-0.05823523087223048;-0.1284577582003168;0.3997336702983141;-0.3525983358442999;0.2441875873616759;-0.3853635306498724
A;7.3;-0.04731750007965463;-0.213718375188523;-0.054674370588417176;-0.12659571274887504;0.397158513278141;-0.35612491574743865;0.24778247463397474;-0.38778580337098845
A;7.4;-0.039787900135722865;-0.2065055672452969;-0.051567452830546756;-0.12460886294214557;0.39380155317068066;-0.35942815127150096;0.25058472564022516;-0.3899649446115978
A;7.5;-0.03299537297466326;-0.1994805776808537;-0.04911644551011829;-0.12257095878155333;0.38968345276764094;-0.3624072842413848;0.25246146256351665;-0.39185009052404407
A;7.6;-0.02707063554161504;-0.19276541605680642;-0.04739453394173232;-0.12050588796859785;0.3848124068087486;-0.3650152136671756;0.25336492995975757;-0.39340733401746864
A;7.7;-0.022158079616046322;-0.18649103771609443;-0.04648549896168497;-0.11843900754409287;0.37918686106532196;-0.3671981473717927;0.25323512240474777;-0.39459429402863044
A;7.8;-0.01857853242194274;-0.1809803203021838;-0.04655114124604687;-0.1164455901999828;0.37288598332037903;-0.36888608730969397;0.25199531634526107;-0.395404264739299
A;7.9;-0.01658393720653084;-0.17650173302020367;-0.04770885940566849;-0.11459006010172335;0.3660077716986798;-0.370032340305261;0.24960912639986166;-0.39585027340185164
A;8.0;-0.016566459396278432;-0.17343893460739768;-0.05016209659141424;-0.11296002765587687;0.3586203567996691;-0.37054266528817026;0.24597156718508195;-0.39590282437175084
A;8.1;-0.01888389535063517;-0.17214636199418543;-0.05409490178821574;-0.11163757542164987;0.3507957614977659;-0.37033493346338586;0.2409901037715647;-0.3955426860424609
A;8.2;-0.02334416975985576;-0.17247251377080275;-0.05938602250957725;-0.11058827528835202;0.3425820334526337;-0.3694548526314363;0.23477367443016028;-0.3947945493868934
A;8.3;-0.029614966762825823;-0.17413261419608084;-0.06583740787531589;-0.10974544604955128;0.33401035530385403;-0.36797471709107965;0.2274828081330904;-0.3936806594322011
A;8.4;-0.03737610091604182;-0.17686467526880012;-0.07325835066934872;-0.10905456742547592;0.32514149561158057;-0.365989244027904;0.21926311186508318;-0.39227239945274217
A;8.5;-0.04622821881701;-0.18033503365817882;-0.08141340187916857;-0.10844486142755905;0.31603479879380725;-0.3636121365307212;0.2102910973827008;-0.39064833817910305
A;8.6;-0.056041531708592274;-0.18443876868224507;-0.09021687476005447;-0.10788846232986771;0.3067136255309757;-0.36085907477455104;0.20066091417630272;-0.3887890733377004
A;8.7;-0.06676171131449404;-0.1891389374211183;-0.09962705866281141;-0.10737393574063336;0.29720127880520497;-0.35773088544495435;0.1904337786816761;-0.386672137148941
A;8.8;-0.0781348094801686;-0.19421928151815493;-0.10948517026072402;-0.10684663827409047;0.28751880432988486;-0.35426640864647974;0.17975986380814035;-0.3842790460075216
A;8.9;-0.08992581117138432;-0.19947889798768692;-0.11964381990261419;-0.10625526991038736;0.2776832955791413;-0.3504994522574445;0.168781712699011;-0.3815862514879411
A;9.0;-0.1019189196177468;-0.20475134180354537;-0.1299789539598395;-0.10557354647291906;0.26775798306260956;-0.3465214865076338;0.15757931299968586;-0.3786898175254878
A;9.1;-0.11384760413700423;-0.20983298607222078;-0.14033849935086007;-0.10477156703877366;0.25782544051375034;-0.342452574207067;0.14624190115621705;-0.37572618495370946
A;9.2;-0.12563788166221546;-0.21467748445584878;-0.1506807578724807;-0.10384890501596278;0.24793338608257365;-0.33834635959529136;0.13479681316941683;-0.3727609115047734
A;9.3;-0.13722535139950143;-0.21924805493219157;-0.16097146208204194;-0.10280935062251562;0.23813186403051834;-0.33426147669279027;0.12325981185507562;-0.3698715996075821
A;9.4;-0.14827279901410773;-0.2232804031787161;-0.1710043084843278;-0.10160165117137687;0.2285007091147655;-0.3303041387596255;0.11178874374796344;-0.36714922247337256
A;9.5;-0.15846212206980326;-0.22652439802871438;-0.1805790965517442;-0.10017349416048749;0.21911057101620024;-0.3265601815962911;0.10055235385361616;-0.36465161055870166
A;9.6;-0.16743170772435434;-0.22869335267765312;-0.18948419867876698;-0.0984742724155705;0.21004078876535814;-0.32316251458429734;0.08968742266405183;-0.36250907711326263
A;9.7;-0.17483672757343705;-0.22951714134230983;-0.19751281583804925;-0.0964551053845053;0.20137137354687784;-0.3202318376615403;0.07933731135352495;-0.3608361958285471
A;9.8;-0.1807833782568915;-0.2290944921551903;-0.20471400004773344;-0.09413491311255484;0.19310490548579207;-0.31772964237150303;0.0695121233053797;-0.3595746014514889
A;9.9;-0.18551693077888132;-0.22763436050834773;-0.21122338572419785;-0.09155618481210315;0.1852132179924002;-0.31558168902592465;0.060156489321142814;-0.358634156269793
A;10.0;-0.1891983276754745;-0.22529576000827678;-0.217097096950841;-0.08874195722046174;0.17771265216922227;-0.3136977340869689;0.05132482173537323;-0.3578893447389708
A;10.1;-0.19205136744686868;-0.22228866821780624;-0.22242695286069392;-0.08572459775267216;0.17060743682426516;-0.31196500793003645;0.04305292908175229;-0.35718968135984674
A;10.2;-0.19419541589148892;-0.21871017111124047;-0.22729319468059384;-0.08253243459610538;0.1638694552412545;-0.310379363086859;0.03526866272865625;-0.3565339581401288
A;10.3;-0.19568916604514808;-0.21461112279998584;-0.23173850375341853;-0.079185302945886;0.15748464393952322;-0.3089562758243596;0.02792095772776193;-0.35594428264810674
A;10.4;-0.19676199073754397;-0.2101707355604674;-0.23591429168160616;-0.07572847182023512;0.15139487248400307;-0.3076617770050398;0.020888483304911887;-0.3553872741896109
A;10.5;-0.19763547416761895;-0.20556138439059612;-0.23996944176863266;-0.07220703708580256;0.1455402742890879;-0.3064684514472025;0.014042921919864781;-0.3548398200049112
A;10.6;-0.19836168585893166;-0.20087448448780343;-0.2438727401617129;-0.06862759973221788;0.1399842079984568;-0.3052986613108222;0.007519918874738352;-0.3541912808832972
A;10.7;-0.19898241134044703;-0.19620625568185535;-0.24756469950143067;-0.0649901739451435;0.13481634650183416;-0.3040453093362685;0.0015236536480172092;-0.35328539915184276
A;10.8;-0.1994680926611565;-0.1915776599104717;-0.2509782226365447;-0.06129315478232478;0.1300979920354317;-0.3026779623593483;-0.003831655900626174;-0.3520760889590946
A;10.9;-0.1997682000374903;-0.18699886608252658;-0.2540253948070692;-0.05753082837667822;0.12590357831356158;-0.30116248986150174;-0.008405136658377721;-0.3505113213367599
A;11.0;-0.20003379200059968;-0.1826195679346343;-0.2567522124021693;-0.05372225082840032;0.12225164450901271;-0.2993999327044494;-0.012115695547247007;-0.34844890155823816
A;11.1;-0.20043823341827594;-0.17859087611266755;-0.2592407285187157;-0.04989277422256322;0.11912801303998588;-0.2973121468653104;-0.014948201955401252;-0.3457772983532106
A;11.2;-0.20111972314305326;-0.1750723309613491;-0.2615020452997996;-0.046057460770124514;0.1165859964760303;-0.29477258678988916;-0.016755275274482173;-0.34232045568549996
A;11.3;-0.20221660254990592;-0.17221269170415976;-0.26356014678328066;-0.04223195846031924;0.11466229821668517;-0.29166770432150146;-0.017416865377849255;-0.3379178156582485
A;11.4;-0.20369757931359622;-0.16997785177233649;-0.2654255533236869;-0.038426810578080506;0.11331743202908573;-0.2880683400232029;-0.01703632219950979;-0.332670336662237
A;11.5;-0.2054664055471065;-0.1682815811849192;-0.26707947058847736;-0.034648986894324274;0.11251285054328708;-0.2840885873412895;-0.015746710031832478;-0.3267458125647611
A;11.6;-0.207496867620935;-0.1670441142699559;-0.26859220079696655;-0.03091077470026171;0.11213647395233117;-0.27985313815463675;-0.01376423408462113;-0.3203037851612427
A;11.7;-0.20974096113719387;-0.16616081489906787;-0.2700344319601813;-0.027223933481463902;0.11206340240595569;-0.27551232144665994;-0.01133981935572237;-0.31354077497497457
A;11.8;-0.21213635476083148;-0.16561149744511994;-0.27135053198056003;-0.023595517542013056;0.11232010513111046;-0.2711008941559663;-0.008476897703705966;-0.3065264783830637
A;11.9;-0.21464290295478605;-0.16539455777098588;-0.27248974061271003;-0.02003240440696441;0.11293931560327586;-0.2666296596575344;-0.005148671112365832;-0.2992939174977467
A;12.0;-0.21715255407576883;-0.16545526768955465;-0.2733795442454223;-0.016539599388459614;0.11394190333452503;-0.2621687751069026;-0.0013998594958399835;-0.291970829656937
A;12.1;-0.2195580686491736;-0.16574293478200897;-0.2739417222403677;-0.013121756612345159;0.11535679113383157;-0.2577803431875805;0.0027410473789668544;-0.28467525660242643
A;12.2;-0.22188336401922726;-0.16618328406466176;-0.2742958889421523;-0.00978894664701535;0.1170375625186102;-0.25356550185040794;0.007062508260031741;-0.2775122623695969
A;12.3;-0.22417783239181865;-0.16668327028981356;-0.27462101864710853;-0.00655246410959176;0.1187761742179152;-0.24965389559073037;0.011268449292725968;-0.27060947521461554
A;12.4;-0.22648835415428792;-0.16721117656444306;-0.2750096115492875;-0.003423075415128096;0.12047589243553425;-0.2460914548961557;0.015246579043154185;-0.2640029952191565
A;12.5;-0.22887600948107067;-0.1677326732419786;-0.2755746880698098;-0.0004113973270518656;0.12202255721741295;-0.2429251562179897;0.01887012064974858;-0.2577231712455257
A;12.6;-0.2313254897795991;-0.16816239209888195;-0.2764146321233625;0.002474256727801105;0.12327016211784869;-0.24028166027153697;0.02187766669070168;-0.2519303349037507
A;12.7;-0.23379896179966764;-0.1684331672942747;-0.27757900590638496;0.005226176798022841;0.12412160007607387;-0.2382671698897867;0.024063304387755835;-0.24677561703595519
A;12.8;-0.2362993746789286;-0.16842781501142134;-0.27922169811586617;0.007838551466440968;0.12437316081606742;-0.23703110840562536;0.025105601694769497;-0.24242819289727535
A;12.9;-0.2388249033970542;-0.16804537638693517;-0.2814760812708377;0.010305741510781452;0.12384381202440498;-0.23670890273305867;0.024707067768732216;-0.2390486133048313
A;13.0;-0.24137486484247006;-0.16734284980949532;-0.2842678731774706;0.01261935134958847;0.12262405984611746;-0.2372366041374927;0.02300634355596287;-0.23658420587643114
A;13.1;-0.24395877350393302;-0.16640519665058573;-0.28748917075326297;0.014772350504935083;0.1208575893135082;-0.238498849555834;0.0202531148471925;-0.23491515241821137
A;13.2;-0.2465550727923187;-0.1653633694537966;-0.2909772659009473;0.016755359364539757;0.11873030943220186;-0.2403777580491444;0.016675209344418462;-0.23396210850639498
A;13.3;-0.24914108676318225;-0.16437023859003563;-0.2945389924557169;0.018559035937848023;0.1164675178605643;-0.24272671831835035;0.012562831621174553;-0.2336154529026535
A;13.4;-0.2517356473231631;-0.16341990487451596;-0.2981790683161005;0.020185087165834226;0.11407952140797928;-0.24550337159987246;0.008002731790598183;-0.2338101677961273
A;13.5;-0.2543568738405062;-0.16248932374075942;-0.3019306532916568;0.02163742989289652;0.11153885763177396;-0.24868908748967078;0.003016990054792501;-0.23450855486430022
A;13.6;-0.2570288182441418;-0.16159519208144513;-0.305760725159379;0.02291625262096364;0.10891125650525613;-0.252200558557067;-0.0022026503718581836;-0.23559324404517845
A;13.7;-0.2597763372818003;-0.1607440479035871;-0.30964958407042964;0.02402412073664628;0.10624694467790885;-0.25596007315279;-0.007481435090748612;-0.23694926620710355
A;13.8;-0.262565778517879;-0.1600781903491475;-0.31344978679600377;0.024957783175276305;0.10369947169533056;-0.25986926426559753;-0.012698016175913374;-0.23854330875038876
A;13.9;-0.26534653444733447;-0.15979469761757326;-0.3169511647923686;0.025709195110449556;0.10148585743531413;-0.263806827149224;-0.017696319493547996;-0.2403483864089413
A;14.0;-0.2680873562546777;-0.15996948118579013;-0.32008790985073166;0.026285348440985068;0.0996606046310875;-0.2677230165498954;-0.022473612218963268;-0.24236556621201366
A;14.1;-0.27075021796051946;-0.1606903803822961;-0.32278442049933354;0.026693953884099564;0.09828462183297937;-0.2715671912719899;-0.027039636326632532;-0.24460518548055088
A;14.2;-0.2733084073479164;-0.16210697578524336;-0.3248530728450447;0.026923493811647603;0.09757357198925742;-0.2752132348902454;-0.031150735710017585;-0.24698961363841843
A;14.3;-0.27574746204388934;-0.16432265967510062;-0.3261478713001509;0.026964919001311927;0.09770428992911029;-0.27855026809351235;-0.03456744890349128;-0.249429876452389
A;14.4;-0.2780237713449081;-0.1675414147419234;-0.3264333233493737;0.026808273496856216;0.09893774032494651;-0.28142842336957186;-0.0370413275549728;-0.2518527272972717
A;14.5;-0.2800981181747515;-0.17194140044881223;-0.32549309134568993;0.026443419065820706;0.10151680446945033;-0.28371019019232646;-0.038327518376826575;-0.2541850475729799
A;14.6;-0.2819744475884134;-0.1774032863198327;-0.3234537712607004;0.02589533097424912;0.10529659191276686;-0.28543189660306156;-0.03853776697290279;-0.2564219759839954
A;14.7;-0.28366042466227714;-0.18374581040608362;-0.3205274500567947;0.02520278431688805;0.110029365651374;-0.2866714759660005;-0.037905733498702965;-0.2585838475657063
A;14.8;-0.28518210874778216;-0.19074305283927995;-0.3169139052049017;0.02438473006688202;0.11550480942194241;-0.2875177944700247;-0.036539362634925965;-0.26066689232776863
A;14.9;-0.28657165434873466;-0.19812617578741865;-0.31286137098076594;0.02346526501379742;0.12145821793353928;-0.28808426923958264;-0.034595270944766554;-0.2626759650302102
A;15.0;-0.2878056039427248;-0.20585399957560924;-0.3084464061701153;0.022480655911072844;0.1277854356662811;-0.28837467997740385;-0.03222611111175766;-0.26461416060454557
A;15.1;-0.2888536879741208;-0.21392329207621952;-0.3036940850718821;0.021460336525028545;0.13444244553398121;-0.2883719982633868;-0.029527022926769675;-0.26647640793017313
A;15.2;-0.2896999587285629;-0.2222364866267812;-0.29876193286639197;0.02045340175215582;0.14122808174358692;-0.28811466008989006;-0.026754699598892095;-0.2682834489943886
A;15.3;-0.29032418930781123;-0.23071104901148676;-0.293792239589596;0.019508750426290078;0.14795756989422415;-0.28763434178356784;-0.02415911829328099;-0.27005536025180366
A;15.4;-0.2907492204484532;-0.2391439493743368;-0.2889007134707313;0.018621947884162715;0.15453237676365372;-0.2870080720868802;-0.02169941087408578;-0.27177429257012253
A;15.5;-0.29101777580939103;-0.24726581320020902;-0.2842356701618014;0.017777381123394775;0.1608324204990108;-0.2863428369382466;-0.019288264316044135;-0.2734167512400152
A;15.6;-0.2911292629631381;-0.25497478595546585;-0.27981172778286734;0.01696778629504081;0.16686877035577208;-0.28566377206532634;-0.016824294651718752;-0.27495276559271353
A;15.7;-0.2910867419686438;-0.2621612373787947;-0.27563384859260154;0.016179014218946186;0.17266975560339226;-0.2849998919308452;-0.01416949944411261;-0.27634896117883745
A;15.8;-0.2909264510480236;-0.2685757023667392;-0.2719122864578418;0.015424642316046011;0.17801813612448303;-0.28445539699020506;-0.011408996828727425;-0.27760256100531766
A;15.9;-0.29067209365712987;-0.27401515515870223;-0.2688484568148146;0.014730991804395188;0.18269243120973133;-0.2841135527267631;-0.008686544743633284;-0.27871572224407526
A;16.0;-0.29037468476019246;-0.2781775566146827;-0.26665715388336153;0.014093429296536009;0.18648852094707813;-0.28411005810567636;-0.006016140360470601;-0.27968650555631225
A;16.1;-0.2900811721554417;-0.2807874139221411;-0.265547340955095;0.01351305482362708;0.18920168582052455;-0.2845677848209047;-0.003435487735282017;-0.2805134596815124
A;16.2;-0.289735082289897;-0.2819698257716059;-0.2654172684474423;0.013015833578078784;0.19092945861923116;-0.2854076416821534;-0.000961080464591646;-0.28117293431729085
A;16.3;-0.28925397752811843;-0.28195043004625386;-0.2660594506238185;0.012622519813033861;0.19188525509876442;-0.2865046077677005;0.0014493028245405881;-0.2816359241375075
A;16.4;-0.2885668752978914;-0.2809573657472004;-0.26736683431053;0.012387900927833151;0.1921391628968543;-0.28772523132030114;0.003658419571849869;-0.2818790926881638
A;16.5;-0.28758878579336855;-0.2792761290432013;-0.2691890411127602;0.012370177548248762;0.19180311527575622;-0.2889082475541369;0.005530051156427795;-0.28187693989401463
A;16.6;-0.28628002729373936;-0.27697949039521763;-0.27138507156719704;0.012555396956524412;0.19105083324922845;-0.2900231177389414;0.007197048361034852;-0.2816174713477011
A;16.7;-0.2846196738746096;-0.2740880916020112;-0.2738611973461147;0.012925433745906822;0.1900077823449431;-0.2910689387603118;0.008783881432878893;-0.2810946520700126
A;16.8;-0.28254139244712473;-0.27076032772651004;-0.2763888510596413;0.01346650594835097;0.18894233650393044;-0.2919715232817697;0.010460960932419106;-0.2802888065315967
A;16.9;-0.2799851612559392;-0.26714086741562415;-0.2787434493026977;0.014158866521005287;0.18812253250293232;-0.29266843098414475;0.012413230255598151;-0.27918428507617143
A;17.0;-0.2769225180716868;-0.26339894145932785;-0.280933672517536;0.015063948925010173;0.1874781189572401;-0.2930649512837751;0.014405973168741149;-0.2777738832295933
A;17.1;-0.2733197942872527;-0.2597495264659333;-0.28300600010340826;0.016272863736284116;0.18686923058885707;-0.2930324038540868;0.016078732957890196;-0.27604645483222434
A;17.2;-0.26918359825508364;-0.2562566741021186;-0.2850149916110247;0.017817785887451087;0.18619850211606614;-0.2925492920260422;0.017263953882300953;-0.2740143629679084
A;17.3;-0.26452804889760184;-0.2529825712782081;-0.28704406912535774;0.019737309205217102;0.18532886458715847;-0.29159549464661216;0.017751708331530835;-0.2716932515514987
A;17.4;-0.259286889118143;-0.2501703482477451;-0.2890055562951295;0.022096056022081534;0.18429972385729254;-0.29002712071176395;0.017357406800490693;-0.2690581169702497
A;17.5;-0.2533911414978762;-0.24803797289286766;-0.29076512283675093;0.024935245095898395;0.1832251671225995;-0.2877203210342203;0.016004279688140777;-0.26608507463989195
A;17.6;-0.2467874470019744;-0.24686361729111095;-0.2922893885345914;0.028340908904795903;0.182057389160307;-0.28451350777575124;0.013387837536684266;-0.26275501055242323
A;17.7;-0.23942083750465404;-0.2469062894604397;-0.2935286188312558;0.03238942631455721;0.18077803335922127;-0.28025572744354;0.009250510940893797;-0.2590479288326648
A;17.8;-0.23132465221142784;-0.24806540319138648;-0.29444158532331777;0.03701633557025552;0.17948390086839794;-0.2750511533833264;0.0038008555457125226;-0.2550000090644975
A;17.9;-0.22257316260493276;-0.2501421565113171;-0.29502896300802295;0.04212332710364386;0.17824884785240425;-0.26907954985516147;-0.002675936311697491;-0.2506713697743006
A;18.0;-0.2131795326215844;-0.25296193869468997;-0.29516745902433605;0.047611270123353755;0.17730852330557667;-0.2624766597446535;-0.009772353370524733;-0.24608502813113642
A;18.1;-0.20316993278568418;-0.2562999320617214;-0.2947335893475218;0.0533602215961384;0.17691670578368246;-0.25541459004530553;-0.017012762514379;-0.24127247765417525
A;18.2;-0.19262604284361284;-0.2600847781900155;-0.29380013551331263;0.05932635052904889;0.17700426796395785;-0.24799717426978374;-0.024364014481649043;-0.23629292387978396
A;18.3;-0.18161640764291764;-0.2642921822986555;-0.29243921535976014;0.06548659270310253;0.17748626877235552;-0.2402903772237983;-0.031856704471717734;-0.23119469920287994
A;18.4;-0.17025393198501515;-0.26877110104368995;-0.2907441597018323;0.07176343087750325;0.17829358718859467;-0.23246457153921485;-0.039374988467578476;-0.22605998213734146
A;18.5;-0.15865530642985437;-0.27338126525762263;-0.28882175109107067;0.07808532508159338;0.17933495401775534;-0.22468311819536035;-0.04683335994205429;-0.2209711006153805
A;18.6;-0.14678767517405067;-0.27801127751069377;-0.2865000870713814;0.08438438525150183;0.18088949991591274;-0.21700657998307582;-0.053860113727973946;-0.215912894871078
A;18.7;-0.13458043741435066;-0.28252499429180755;-0.28351761335620207;0.0905768469410031;0.18336748971265848;-0.20949290915091945;-0.059944644789020174;-0.21084966688982032
A;18.8;-0.12200987349468129;-0.28689824240894435;-0.27976230217164133;0.09663579545798484;0.18693592905759537;-0.2021463140793487;-0.06489928287758762;-0.20576252366004688
A;18.9;-0.10903653918301259;-0.29111337854851005;-0.27509674517314053;0.10253748847379196;0.19179399385258655;-0.19495579280249187;-0.0685167115705978;-0.20062074201092361
A;19.0;-0.09565981423418801;-0.2949907319451901;-0.2693633361682499;0.10817442137515787;0.19822522247252383;-0.18805588016791974;-0.07034456237740017;-0.19544366943336566
A;19.1;-0.08191555289065189;-0.2983616133367608;-0.26247633489037536;0.11344368252793124;0.20641134126997684;-0.1815961195284328;-0.07002577626891604;-0.1902744089019679
A;19.2;-0.06776414946160703;-0.3010262760398543;-0.2542080418238708;0.11823514860035278;0.21673757536854676;-0.1756906367716522;-0.06700855083264656;-0.18510105869285187
A;19.3;-0.05318010743026491;-0.30279770713915255;-0.24435909724811467;0.12244134892022984;0.22954599106114948;-0.17045724728443767;-0.060788108654623585;-0.17992315803383452
A;19.4;-0.03825547019056952;-0.3037585085574177;-0.23308518475376694;0.1260859072369902;0.24460084149267303;-0.16589261056039328;-0.05162183704580059;-0.17478636061575958
A;19.5;-0.023094891917335048;-0.30406789542231394;-0.22061735635642243;0.1292371635840217;0.26153621172562325;-0.16193616660482268;-0.03996190083880702;-0.16972845055667385
A;19.6;-0.007850256847032;-0.30385684679965586;-0.2072208106348583;0.13192211219827588;0.2799503313529179;-0.15861293510145424;-0.026241553643360227;-0.1648504047839081
A;19.7;0.007309118062453379;-0.30329347042015975;-0.19321313464644607;0.13418632275874742;0.2993568969091509;-0.15593112100612272;-0.011003672976492851;-0.16025992875081485
A;19.8;0.022356053076527438;-0.3024430576648536;-0.17867107715163133;0.13607196992245996;0.31963031969520816;-0.15382394986703174;0.005578998455406214;-0.15593706114102268
A;19.9;0.037282025291292875;-0.30133495987756653;-0.16362003828201566;0.13760216818141746;0.34072679386178617;-0.15224129216129922;0.02343830271754843;-0.15185651000158185
A;20.0;0.05203910803945622;-0.30009615752712726;-0.1482134096973029;0.13885605794478284;0.36239482530218226;-0.15107511960383002;0.04222932482497388;-0.1479967275364169
A;20.1;0.06659083007835509;-0.2988452372311512;-0.1325873744896624;0.13991201789817342;0.38440846492754677;-0.1502123368332211;0.061632917310694424;-0.1443273548503674
A;20.2;0.08079863440873769;-0.29766015402657864;-0.11694363382589312;0.14075259179478294;0.4064683847120083;-0.14973355896948481;0.08136135927408805;-0.1409708014949036
A;20.3;0.0944758552881888;-0.2966325457374177;-0.10154472414138116;0.141344647991561;0.42818888349554474;-0.1497686075355893;0.10105833409052956;-0.1381018746269591
A;20.4;0.1075460351286397;-0.29577336565591583;-0.08648070629470883;0.14165454668889854;0.44944296001925377;-0.1503879451000043;0.12063026557151701;-0.1357976813167161
A;20.5;0.11992713475613126;-0.2950859887765649;-0.07184123741264692;0.14163789569554375;0.47010635047489213;-0.15168110921457556;0.13999686099688624;-0.13414868197277752
A;20.6;0.13145147847485195;-0.29470347917598794;-0.05791300740043148;0.14131738853010578;0.48974649809021464;-0.15368860563402054;0.1587017990799282;-0.13327239122172685
A;20.7;0.1419835130488396;-0.2947542485639856;-0.044952275620235405;0.140735680825383;0.5079731071762152;-0.1564052595564447;0.17631349753044123;-0.13324290787771176
A;20.8;0.15133055777167392;-0.2953795119405971;-0.033273753256084504;0.13989684153412618;0.5243112133046504;-0.15991408128770912;0.19234171791809906;-0.1342214181948158
A;20.9;0.1593136262912651;-0.29671236983192184;-0.023176266572068727;0.1388122993885048;0.5383101981937939;-0.1642809090593187;0.2063184128263087;-0.13634922361174873
A;21.0;0.16601014835619843;-0.29869089874183175;-0.014560371039747722;0.13749500637946;0.5501204366107606;-0.16942934042677082;0.2183910173343735;-0.13953314792255966
A;21.1;0.17157047218583177;-0.3011934554936726;-0.007205792553696355;0.13594508334708344;0.5600732541815514;-0.17526301380805487;0.22889627766437481;-0.14362994419389707
A;21.2;0.17611533160246662;-0.30413087548029516;-0.0009638654670416358;0.1342084177720606;0.5683972437610958;-0.18163655742835738;0.2380545610420155;-0.1484683883525424
A;21.3;0.17980321049743875;-0.30738688571381445;0.004370562721741855;0.13233245299124707;0.5754058514871279;-0.18838239442770943;0.24617153390099045;-0.15384253356599142
A;21.4;0.1827107603853504;-0.31089827101195766;0.008910374661147635;0.1302957056083205;0.5812619551346261;-0.1954812983024845;0.25340904762052396;-0.15971163015395984
A;21.5;0.18487914080152823;-0.31462751489778107;0.012713451740420822;0.12807806777004682;0.5860458099582768;-0.2029335554189351;0.2598450090170381;-0.16606626948500747
A;21.6;0.1864484637567898;-0.3184644306330666;0.015991002104502883;0.12565159286114636;0.5900674186684887;-0.21069412998354897;0.2657915009654799;-0.17281721663427518
A;21.7;0.1875539003541924;-0.3223031474632254;0.018947988317304265;0.12298518388464785;0.593626115251995;-0.2187271692073307;0.2715490122696025;-0.17988588583134213
A;21.8;0.1882551641151764;-0.32609665429670276;0.021629495250655495;0.12014869748601331;0.5967992127264559;-0.2268950450910885;0.27718418634128383;-0.18712902293564415
A;21.9;0.18861473052522726;-0.32979762369766696;0.024069161310466214;0.1172433311028298;0.5996529976614786;-0.23501226604222625;0.2827498288133219;-0.19435860702054963
A;22.0;0.18864426157264091;-0.3333999886855281;0.02624520858467072;0.11432297113991918;0.6021572615192783;-0.24299730663405095;0.2881980296112925;-0.2015046638393203
A;22.1;0.1883450082938669;-0.33690595728428097;0.028115832446977684;0.111451727520679;0.6042534032902065;-0.2507613028843507;0.2934510583998975;-0.20849417420705763
A;22.2;0.18784024092522955;-0.3402272758406282;0.029818489961353833;0.10869114775199584;0.6061566256304447;-0.25813841903591017;0.2987133663987045;-0.2151363343903876
A;22.3;0.18726384865721002;-0.3432710814736417;0.03151577300018005;0.10607770498698255;0.6081138223888933;-0.2649934078159739;0.3042201513902194;-0.22126660355592254
A;22.4;0.18673090975725604;-0.3459519494997947;0.033325350055193326;0.10370079496827689;0.6103171762853252;-0.27112959643412404;0.3101544909233107;-0.2266646713357936
A;22.5;0.18635747428694938;-0.3481873970806575;0.03536843632732545;0.10163909939964366;0.6129613608509539;-0.27636445507554575;0.3167000151775641;-0.23112485731338595
A;22.6;0.18614591142899606;-0.3499943988993417;0.03764221008569635;0.09985856694372952;0.6160201741969464;-0.2807570130223467;0.3238030659446327;-0.23471916662128756
A;22.7;0.18605248556307163;-0.3514250525735019;0.040087642646176036;0.09830499348472888;0.6193762820929161;-0.2844301301739045;0.3313161963904596;-0.2375957801853481
A;22.8;0.18608839359245177;-0.35250451530741245;0.04272181076464232;0.0968988167737761;0.6230222417228628;-0.28749516230566696;0.33919723143868996;-0.23988073490789308
A;22.9;0.18624986311969582;-0.35327157298359957;0.04554640994112891;0.09554404103947522;0.6269224894209193;-0.29009816852262515;0.3473734907720667;-0.24173930720787773
A;23.0;0.18650445581558728;-0.35375762938721156;0.04850825684149651;0.09424293167200304;0.6309865305095395;-0.29228060983670057;0.35573642697300745;-0.24322688685814153
A;23.1;0.18683390752475937;-0.3539828912842564;0.05156882209042912;0.0930124936420329;0.6351514771526388;-0.29405175851253196;0.3642079670819598;-0.24436162305675602
A;23.2;0.18717513157110055;-0.3540022724198524;0.054641139386763626;0.09183529610542696;0.6392680090778216;-0.2955065785654898;0.372616568551174;-0.245261545896029
A;23.3;0.1874626113003064;-0.3538709460867375;0.05763442391039675;0.09069993311574631;0.6431837814114534;-0.29673395391799096;0.38078999575512285;-0.24603742654518168
A;23.4;0.18774375966341417;-0.3535962797570127;0.06060754866923279;0.08953482989567085;0.6469617415953905;-0.29779947880248736;0.3887590800660261;-0.24675943054765082
A;23.5;0.18809342608466117;-0.3531773734275889;0.0636592410554373;0.08823903161672852;0.6507166073440569;-0.2987837348002267;0.3965990941123021;-0.24751112191243774
A;23.6;0.1885597034465949;-0.3526108123316174;0.06684430395953544;0.08677948381068834;0.6545209213861218;-0.2997009319919903;0.40436332737265346;-0.24830196208489763
A;23.7;0.1892012379528749;-0.35188829273160493;0.07023192161602232;0.08511849052443043;0.6584690823110853;-0.300560810710675;0.4121272256341326;-0.24913442824106902
A;23.8;0.19004388400745054;-0.3510301827203506;0.07386261889896772;0.08316825937390604;0.6625850524555812;-0.30147553558525475;0.4198751882497449;-0.2501338278362679
A;23.9;0.19108983650458367;-0.35006368382424213;0.07774618816640544;0.08086118819374644;0.6668511529974204;-0.30255379245762404;0.4275548849684645;-0.2514235253813508
A;24.0;0.19238118904328694;-0.34900664565377504;0.08194738895620013;0.07808554261649814;0.6713251339434363;-0.3039176881483532;0.43518416729277654;-0.2531364052923859
A;24.1;0.1939535532252279;-0.34787544259043734;0.08652384507278565;0.07474020586565544;0.676055764828134;-0.3056831641751079;0.44277417346021064;-0.2553987923908485
A;24.2;0.19578150938979366;-0.3466781068539726;0.09143321309146657;0.07088443032910963;0.6809979480720294;-0.3078120349759943;0.45028954347499006;-0.2581632224273518
A;24.3;0.19782768909265247;-0.345419575687254;0.09661205321453092;0.06661600448282012;0.6860927943643569;-0.31022027324750434;0.4576978905121196;-0.2613284730343244
A;24.4;0.2000449863691962;-0.3440989761823543;0.10199423132084462;0.062036722902043095;0.6912626660881092;-0.31284539617666995;0.46493552937014826;-0.26482320398328696
A;24.5;0.2023760975065816;-0.3427149403294285;0.1074979909644318;0.05727104036187658;0.6964148512813271;-0.31560418324156947;0.47193093105561434;-0.2685525454010378
A;24.6;0.2048043000313644;-0.34127614689642716;0.11309734355611312;0.05235144068112696;0.7015332571167532;-0.31846172403616313;0.47868996486145665;-0.272466573460199
A;24.7;0.20732147712582982;-0.3397884481362512;0.11878364489188442;0.04728868821172938;0.7066190073868617;-0.3214026408872859;0.4852303653055712;-0.2765373287773851
A;24.8;0.20989731617983942;-0.3382652489233502;0.12450432690279634;0.042148782654246375;0.711633592170628;-0.32435860785090886;0.49154716592999836;-0.280675868806358
A;24.9;0.21250297213529112;-0.33671894822911685;0.13021123049863714;0.03699119667017481;0.7165440402119385;-0.32726460609132024;0.4976421921442622;-0.2847963674013734
A;25.0;0.21510202791724442;-0.3351314878328129;0.1358723154069601;0.031891505349358695;0.7213040252057761;-0.33008733531522383;0.503472756571;-0.2888623259784495
A;25.1;0.2176494367892099;-0.333480421331112;0.14144581165030257;0.026946050354988316;0.72584896091925;-0.3327910823108202;0.5089707041912304;-0.29283866180189033
A;25.2;0.22012065540555614;-0.33174585993716565;0.14692675647438502;0.022184797274057644;0.730162257071802;-0.3353734538100963;0.5141238668876857;-0.2967213085944129
A;25.3;0.22249103800485504;-0.3299036688450041;0.15231408705184357;0.017637014377701377;0.7342287065447453;-0.3378363192638516;0.5189183239057007;-0.30051253031523295
A;25.4;0.22470987886357285;-0.32795821837239014;0.1575353237548871;0.013408422800445408;0.7379654135460267;-0.3401234771805872;0.5232801317239009;-0.30414872561377226
A;25.5;0.2267283740656154;-0.3259241810856466;0.16251469381213202;0.009592744188033464;0.741292594739396;-0.3421793104652795;0.5271452970056272;-0.30756350723366754
A;25.6;0.22849325325814096;-0.32378987349158095;0.1671859757282439;0.006309896673823978;0.7441285605872192;-0.34394161171601434;0.5304354632563726;-0.3106912597003175
A;25.7;0.2299522762987367;-0.3215524902525697;0.17147906066007845;0.0036716161918821655;0.7463900452712258;-0.34535318409557414;0.5330713305633061;-0.3134708261110335
A;25.8;0.23109607620972294;-0.31922047470981685;0.1754020887376928;0.001632605349613847;0.7480950163858067;-0.3464388432087664;0.5350964078155043;-0.31591742113329513
A;25.9;0.2319296798921524;-0.3167922780683634;0.1789974944733661;0.00010380840210899578;0.7493007193155945;-0.3472452254828977;0.5365971201602786;-0.31806880263567017
A;26.0;0.23244741246385914;-0.31432019049365856;0.18224988687673793;-0.0009899538314224188;0.7500103808926628;-0.3478184863073479;0.5376027512703727;-0.31995873963665566
A;26.1;0.23264959763568083;-0.31185848178435727;0.18515436662794826;-0.0017460768135837412;0.7502412932831941;-0.3482159528888169;0.538159896737568;-0.32163142231374664
A;26.2;0.2325338564474171;-0.30937602397361985;0.1877523284048772;-0.0022007536311585696;0.7500419822087672;-0.34845025113432326;0.5383332923351869;-0.32309762497958516
A;26.3;0.2320930994966206;-0.30684598275920205;0.1900702049199383;-0.0023692060249791425;0.7494436615507931;-0.3485244254385429;0.5381633309027558;-0.32436068579750366
A;26.4;0.23133471617397827;-0.30422594748805576;0.19217878673071453;-0.0023240810961970837;0.7485279705703336;-0.34846781269016125;0.5377576847728278;-0.3254462901527022
A;26.5;0.2302670337151822;-0.3014705784018039;0.19414997773654363;-0.0021336477121991493;0.7473774832564395;-0.34830651258458944;0.5372215657230086;-0.32637852067811224
A;26.6;0.22887694598235075;-0.2986762918182082;0.19591322317381632;-0.0018423362490374018;0.7459401080253745;-0.3480806245837216;0.536507488252691;-0.3271902711368364
A;26.7;0.22714698187316973;-0.2959789219360385;0.19736500323274164;-0.00150269067433495;0.7441342321276219;-0.3478419317663506;0.5355409154733248;-0.3279220819116775
A;26.8;0.22506369515786862;-0.29345613869862675;0.19843558399746186;-0.0011225460208290627;0.7419054034063288;-0.34760526054744956;0.5342564561508318;-0.32858863769950997
A;26.9;0.22261254724013746;-0.2912013767529906;0.1990393223432818;-0.000705602545336248;0.7391842565973281;-0.3473860984703374;0.532569326865306;-0.3292056960652916
A;27.0;0.21978598032190533;-0.28928066575278777;0.19914729390082364;-0.00033017095824483533;0.7359605778080827;-0.3472363645234666;0.5304995556036278;-0.32981126530825744
A;27.1;0.2165810528209997;-0.287721014505002;0.19876567817281288;-7.321209256083705e-05;0.7322568017974014;-0.3471987501947944;0.5281039991210097;-0.33043570230744734
A;27.2;0.21299186542298187;-0.2866378756318628;0.1978255801490043;-1.7204151996352834e-05;0.7280274307734906;-0.34733753207701623;0.525354158167441;-0.33113062129230286
A;27.3;0.20901342527759947;-0.28612583399944214;0.1962746374042661;-0.00024104453003559456;0.7232415761451074;-0.3477104024945139;0.5222408366452607;-0.33194074718333777
A;27.4;0.2046492513672824;-0.2861321705621993;0.1941483827422088;-0.0007171047156555588;0.7179409528556349;-0.3482825718230784;0.518790304991259;-0.3328429924719609
A;27.5;0.19990764158166208;-0.28659046897257845;0.1914831916760642;-0.00138438881504932;0.7121663283309063;-0.3489971915632375;0.5150033814195076;-0.3338022881356606
A;27.6;0.19479115125732083;-0.2873531649715284;0.1883890769520562;-0.0022032814886783214;0.7060241272961498;-0.3497929321037909;0.5110011758711162;-0.33476417178859297
A;27.7;0.18930465876787927;-0.2882508343429935;0.18499014720539275;-0.0031196149581234067;0.6996327177679991;-0.3505954040066279;0.5069113800034808;-0.33566472730665087
A;27.8;0.18346377212859455;-0.28931941774011793;0.1812508040152947;-0.004103122752398214;0.6929711714389439;-0.3513876372352569;0.5026537566555316;-0.3365081969005095
A;27.9;0.17728378413960133;-0.29061087333172786;0.17712673298517423;-0.005137855888559528;0.6860109900046565;-0.35216480429641317;0.49814867262488693;-0.3373063871855839
A;28.0;0.1707847461941272;-0.2921439076007095;0.17259014129771355;-0.0061676986044112425;0.6787376856873388;-0.3528907459966546;0.4933030063859496;-0.33805324367560363
A;28.1;0.16398876323084455;-0.293949464626019;0.16760440265640586;-0.0071386926874259515;0.6711288438098553;-0.3535335900336052;0.48801207010142544;-0.3387472480640188
A;28.2;0.15689743874298312;-0.29585501757796795;0.16230819812399844;-0.008036997573190874;0.6633146672460759;-0.3540438380426383;0.48246415436728185;-0.339329763057969
A;28.3;0.14950651288750372;-0.29761138834803447;0.15690346640902586;-0.008851223451451062;0.6554807054766592;-0.35435717947501155;0.4769413275828702;-0.3397184502221755
A;28.4;0.1418248433664422;-0.299120764901323;0.15147582070357402;-0.009588421486554033;0.6477106214747037;-0.3544538318978261;0.47156932928229;-0.33988413758565006
A;28.5;0.13386010590147635;-0.30026618917146397;0.14612819746005368;-0.010260791018256832;0.6401027596507101;-0.3543137516251451;0.4665038617952071;-0.33979264653360364
A;28.6;0.1256182490899267;-0.3008671293271066;0.14100343447511232;-0.010831723037866503;0.6327921923305855;-0.35387050497716865;0.4619126272631737;-0.3393801405503041
A;28.7;0.11711207503863186;-0.300803525212479;0.1361956257092718;-0.011260093816754413;0.6258718486536292;-0.35306752837435296;0.45788481424590266;-0.33860232574977633
A;28.8;0.1083431096006171;-0.299823507768604;0.13190598799497;-0.011512107424128004;0.6195254060401565;-0.3518276624702561;0.45467999240816237;-0.33737220647930766
A;28.9;0.09931591835621045;-0.2977045805830283;0.12831372174249633;-0.011554530246672634;0.6139178485107015;-0.35008005355805816;0.45252306294842004;-0.3356133534801149
A;29.0;0.09006738271422243;-0.2945915499889802;0.12531606713584598;-0.011399016227624514;0.6089685046393543;-0.3478609405385167;0.45125508610171927;-0.3333802589963497
A;29.1;0.08064174696218629;-0.2907050750276827;0.12275362125581868;-0.011073736730069506;0.6045453927036446;-0.3452355553207229;0.4506496930647774;-0.33075531977667705
A;29.2;0.0710857008974628;-0.2863117972594251;0.1204310763049321;-0.010590977589861161;0.6004907762509859;-0.3422632096777751;0.45040057674225586;-0.3278362373518382
A;29.3;0.06145100967190231;-0.28173087056668766;0.118113082222159;-0.009969030514755062;0.5966117143224858;-0.33901860772403625;0.4501461904938937;-0.3247395662908259
A;29.4;0.05176898898855242;-0.2770085255986041;0.11577762460358887;-0.00922621699993531;0.5928904289242718;-0.33552997094605486;0.44986541489788134;-0.3214866385206765
A;29.5;0.04206616698604915;-0.2721399351533096;0.11344348419548922;-0.008375059349681635;0.5893443975153234;-0.3318114880215606;0.4495928109282028;-0.31808108199904517
A;29.6;0.032381865507454144;-0.26724481145175183;0.11103178588856188;-0.007446150173580968;0.5859047399734312;-0.3279159841023751;0.44923319358291636;-0.3145709884535197
A;29.7;0.022753698526400967;-0.26242275684219774;0.10848014763500213;-0.006469667238121701;0.5825157463766795;-0.32389318943193013;0.4487173780286762;-0.3109975193964205
A;29.8;0.013221866107179459;-0.25789050024644844;0.10563822030045156;-0.005446122243471407;0.5790598638468021;-0.31978399240767574;0.44778806159165185;-0.3074428221510912
A;29.9;0.0038316492687240356;-0.2539409704934865;0.10229629301706389;-0.0043712225189525;0.5753724776307614;-0.3156371307491974;0.44608397369745756;-0.3040160248168897
A;30.0;-0.005388012712140622;-0.2506628375468365;0.09840542396824858;-0.0032380736480810413;0.57141946738912;-0.3114675947547876;0.4435027582877096;-0.30075365188158276
A;30.1;-0.014409060025950104;-0.24814968148388505;0.09391378331818157;-0.0020364933895002935;0.5671650893314011;-0.30728842527578815;0.43993214868829433;-0.29769410994012446
A;30.2;-0.02318174574487042;-0.2466923708264881;0.08860906215559972;-0.0007783330798734056;0.5624357039872026;-0.30316319598570063;0.4350302415537808;-0.29494633983691454
A;30.3;-0.0316585359437731;-0.2465335333116787;0.08231516381550996;0.0005197780312169442;0.5570845866997516;-0.29915276139194047;0.42852210759703535;-0.29260207299790064
A;30.4;-0.0397900670784157;-0.24801400157235243;0.07478453020322995;0.0018497475932015561;0.5509103821755676;-0.2953259410179956;0.4200016793742041;-0.2907887556367248
A;30.5;-0.0475282656173448;-0.2514488923821725;0.06578790246483734;0.0032025466793212942;0.5437254041981614;-0.2917483788284856;0.40909449017861643;-0.289624546195399
A;30.6;-0.05486242756678017;-0.25667040863366086;0.0554737363013631;0.004577341543591906;0.5356483787848676;-0.2884048742333021;0.39603550808544163;-0.2890544890497013
A;30.7;-0.06179552732921145;-0.2633786548613406;0.044097113479177885;0.005978174818555004;0.5268854033251591;-0.2852562882587306;0.3812273058889266;-0.288976785399619
A;30.8;-0.06831878032008731;-0.2713144994938119;0.0318680187788285;0.007399713856591106;0.5176010196896472;-0.28227585315681525;0.3650130656847148;-0.2893030146898745
A;30.9;-0.07442929973658785;-0.2801499974431465;0.01905003282376061;0.008837517846919773;0.5080028187210761;-0.2794256403067039;0.3478230801558997;-0.2899200907627728
A;31.0;-0.08012686205754704;-0.28974811991506044;0.0057778048614007815;0.01029576316648928;0.49819937483599475;-0.2766924225249441;0.32985970388998176;-0.29078612340784105
A;31.1;-0.08540707570297013;-0.30003902287675643;-0.007867908111241384;0.011777200309630587;0.4882547706488989;-0.2740740005616389;0.31123814628074786;-0.291883457590548
A;31.2;-0.09028087215365321;-0.3107721163923465;-0.021661518921138878;0.013289675674949208;0.47835193795185216;-0.2715375483622231;0.29230668266370685;-0.2931293004746909
A;31.3;-0.09476036066665561;-0.3217112058739753;-0.03538799998101272;0.01484106400768237;0.46866497641590765;-0.26905234020999425;0.27339556714964797;-0.29444635351199366
A;31.4;-0.09882964978998032;-0.33270456429486384;-0.0489334048588157;0.016420374666441084;0.4592754064201383;-0.2666099863790641;0.2546973294877244;-0.2957844486908634
A;31.5;-0.10246754633040478;-0.3435770035423129;-0.062176065897917354;0.018012188537839258;0.45026815404930254;-0.2642007680252969;0.23642582752976526;-0.29708350966094876
A;31.6;-0.10565824007863078;-0.35429026789659535;-0.07508569966457834;0.019604518751481947;0.4416565174350353;-0.26183442108240707;0.2186339996303417;-0.29833573735399366
A;31.7;-0.10838395430207548;-0.3648215222774134;-0.0876484681036942;0.02118321534113221;0.4334391106975142;-0.2595237622959057;0.2013509327169718;-0.29953857519452587
A;31.8;-0.11063982894810476;-0.37490752518703996;-0.09966016492963892;0.022742415727942777;0.4257725902565941;-0.2572411522701592;0.18491693143691457;-0.3006002717642069
A;31.9;-0.11242800834923194;-0.38428503527232394;-0.11090762631416062;0.024280256316198567;0.41882315260014735;-0.2549572706149861;0.16968127720180703;-0.30142986915655
A;32.0;-0.113741089938177;-0.3926888489452258;-0.1211985766422714;0.0257859740778823;0.4127345245660283;-0.2526445246873128;0.15597171737571625;-0.3019340338504053
A;32.1;-0.11457437642516766;-0.39986166995732475;-0.13034318128013211;0.027250477598406597;0.4076497283603313;-0.2502759621585082;0.14411079734596033;-0.3020222778201962
A;32.2;-0.11493532128718087;-0.4058649470857256;-0.13835992962577226;0.028672240665359006;0.4035488222085677;-0.24787163054444905;0.13405348577072296;-0.3017262666950753
A;32.3;-0.1148335515595873;-0.4108688041256716;-0.14534782152458892;0.030048947969641304;0.4003465559288859;-0.2454674785537585;0.12561797980997635;-0.301118889023809
A;32.4;-0.11428476446213942;-0.4149534400742976;-0.15132184033209928;0.03138720816698193;0.3980322732612862;-0.24308464426905507;0.1187596379528637;-0.300238194340964
A;32.5;-0.11330746458786933;-0.41824320926384306;-0.15632618200367343;0.0326948602791326;0.39657242172137686;-0.24075038590840014;0.1133824016898588;-0.29913902410140825
A;32.6;-0.11190885701264452;-0.4208386352847908;-0.16043540192871752;0.033961886048333945;0.3958969447489409;-0.23848801526203234;0.1093585559903607;-0.29786642752366266
A;32.7;-0.11009554745337624;-0.42279827671121595;-0.16369855097510388;0.03517760166974693;0.39595656526769574;-0.23631371935123857;0.10660759038409928;-0.29644859609081387
A;32.8;-0.1078779574761608;-0.42430479885547534;-0.16624764323994956;0.03633225357394121;0.3966334027491589;-0.23426310881398704;0.10490082782594179;-0.29496224816468875
A;32.9;-0.10526690399988414;-0.4255391619099784;-0.16821827943616707;0.037415155490177376;0.3978064977919118;-0.23237059200281918;0.10400606557121073;-0.29348290992693293
A;33.0;-0.10228263834001439;-0.4264968504995341;-0.16956804539113346;0.038436867609177305;0.3995165660428226;-0.23064038937382625;0.10398481034946716;-0.2920124835817113
A;33.1;-0.09894959343444931;-0.4271442123303908;-0.17021552705679976;0.039415344703326305;0.40184036640566045;-0.22907230514580545;0.10495838704524107;-0.2905414674783895
A;33.2;-0.09528693031034585;-0.4274352167393376;-0.17011065804135583;0.04035570574599223;0.4048233894989597;-0.22766099536952344;0.1070126731855865;-0.28905429381629943
A;33.3;-0.09131512730665658;-0.4273034489467271;-0.1691861962857697;0.0412653692273226;0.4085270751853862;-0.22639695817943428;0.11026302981787417;-0.2875267444105427
A;33.4;-0.08705768947656267;-0.4268157186488297;-0.16744537353287559;0.042155128293382305;0.4129494489216352;-0.22529662121722316;0.11468375051270652;-0.28598961305836657
A;33.5;-0.08253661303806137;-0.42607158884941754;-0.16492876842702486;0.043030145056763835;0.4180534308341928;-0.22438111539219419;0.12018859540455118;-0.2844867144472145
A;33.6;-0.07777850078033222;-0.42511351628219973;-0.1616124008874671;0.04390867806725396;0.423865840460552;-0.22366025241746135;0.1267979742446954;-0.2830368153726832
A;33.7;-0.0728091991306119;-0.4239903514520069;-0.15748221897396864;0.044806697789027794;0.43040235885215417;-0.22314479610789428;0.13451525626004912;-0.2816615267154168
A;33.8;-0.0676428003074534;-0.42272015455226786;-0.15259660161535038;0.045708709498168965;0.43760558820807116;-0.22283387363101914;0.14326124893311398;-0.28036893643631533
A;33.9;-0.06229063417760816;-0.4212957424583186;-0.14702180958110578;0.0465935893785181;0.44541199108213636;-0.22271832701243754;0.15295787599256894;-0.2791547815612647
A;34.0;-0.056762296207582;-0.4197615468441933;-0.14085100568652287;0.04743572377192873;0.4537211601009066;-0.2228041483563561;0.16346164993964596;-0.27804080925421193
A;34.1;-0.05106604310596907;-0.41815991342734016;-0.13419019140651223;0.04820515964447836;0.4624202365660759;-0.22309557764139631;0.17461324367584297;-0.2770474720771059
A;34.2;-0.04521723074341022;-0.4164727040499523;-0.12706864330424938;0.04889836629966915;0.4714886859047658;-0.22357730046567115;0.18639071554285902;-0.2761611020284134
A;34.3;-0.03923187356900293;-0.41468412099004226;-0.11950303418033936;0.04951707870302613;0.4809167694142662;-0.22423502119002903;0.1987853533659747;-0.27536889940200737
A;34.4;-0.03312562178971401;-0.41276522902768864;-0.11154100827311719;0.05005102373943959;0.4906700770543546;-0.22504819651313968;0.21175963120897645;-0.27465136910446475
A;34.5;-0.02691382489426264;-0.410683857492824;-0.1032250681090332;0.05049249928295296;0.5007197409587381;-0.22599467153032693;0.2252837935721228;-0.2739866465364731
A;34.6;-0.020604582770164193;-0.4084998113041278;-0.09463314704299108;0.050823471560939026;0.510968706419737;-0.22708588856351808;0.2392145377342514;-0.2734043405626361
A;34.7;-0.014205085828712605;-0.4063018205844493;-0.08586696027754659;0.05101819243683359;0.5212886340531266;-0.22834311059951995;0.25335936604622944;-0.2729503517523524
A;34.8;-0.007722559884935087;-0.40414002411110683;-0.07697484462347859;0.05107282489074105;0.531614796559146;-0.22977255305993838;0.2676178889569405;-0.27264589879538015
A;34.9;-0.0011631209391618214;-0.4020728544360024;-0.06800635284880574;0.05098356649871327;0.5418774206032069;-0.2313834412862481;0.28188086761614084;-0.2725167155229338
A;35.0;0.0054581872268304465;-0.40015917547141644;-0.05907253338713403;0.05072264447898256;0.5519593068345587;-0.23318331285980554;0.2959750696556789;-0.2725909005537783
A;35.1;0.012123882595376223;-0.39843920601726435;-0.05027607082071661;0.050266682359873194;0.5617614829151796;-0.2351714215298366;0.3097543977928625;-0.27288475331029716
A;35.2;0.01882380493475555;-0.3969866176237744;-0.0417320488296431;0.04958494263723967;0.5711496154830709;-0.23736274810422087;0.3230214932365456;-0.27343626212131955
A;35.3;0.02554515643668953;-0.39587061006229085;-0.03355487631523335;0.04864834509205185;0.5799962225096476;-0.23976936164059426;0.33558740466776005;-0.2742798585977706
A;35.4;0.03227532288469526;-0.3950768427722311;-0.025741209980447266;0.04747910206066219;0.5883194050539009;-0.24236813809917424;0.3474704550949843;-0.27539387924375625
A;35.5;0.039005986767293166;-0.3945692385106012;-0.018246017211121845;0.04611533338578422;0.5961778942834943;-0.24512884983162442;0.3587486613392521;-0.27674310394090007
A;35.6;0.04571058546416129;-0.39431883620768104;-0.011071334757110307;0.0445827798365217;0.6036132134770185;-0.24801753828975004;0.3694672432062971;-0.27829362471026187
A;35.7;0.05236274367639382;-0.39428417543971594;-0.0042024585783870805;0.042914573599671435;0.6106879354883867;-0.2509949808142493;0.3797013330818766;-0.2800031616919778
A;35.8;0.05896274184255823;-0.3944527667199562;0.0023889209273271206;0.04113544597072405;0.6174170806891848;-0.2540467897645651;0.3894725713314129;-0.281856207372555
A;35.9;0.06550866102690023;-0.39482464339228684;0.0087123109732552;0.039261942284747775;0.6237950111300998;-0.2571641056274223;0.3987724835740156;-0.2838459101804416
A;36.0;0.07200685787324979;-0.3953669550279377;0.014831395432095107;0.03733347386981034;0.6298725042359914;-0.26032450233098325;0.4076747533334064;-0.2859430542114909
A;36.1;0.0784644746746288;-0.39604817040626994;0.0208102962808816;0.03538818988550041;0.6356974021478745;-0.2635075780636762;0.41624998768489796;-0.28812036744767067
A;36.2;0.08483907512488376;-0.39686382788363694;0.026594430055918217;0.03343284839025529;0.6412745314223995;-0.26668745617907197;0.424483796921332;-0.29035937327781003
A;36.3;0.09107590851998548;-0.3978092894701284;0.03210557634390199;0.03147106003017086;0.6466105130357969;-0.2698319681600121;0.4323566603953015;-0.29263762728220577
A;36.4;0.09713690774237893;-0.3988923538454019;0.03728232408982546;0.029499276761987048;0.6516831256406608;-0.2729274714792127;0.43982219830071045;-0.2949501240978023
A;36.5;0.10297857885736494;-0.40012413575753136;0.04205027904054237;0.027509657672149856;0.6564646813438593;-0.27596078461380147;0.44682407008488756;-0.29729376190240586
A;36.6;0.10857424990210429;-0.40147777408591523;0.046396839584214256;0.025527403129843584;0.660997905042489;-0.27889569623287924;0.45340346231882833;-0.29963339392325317
A;36.7;0.1139111883210866;-0.40292050084821973;0.050337626122033186;0.023583853899378227;0.6653322058111506;-0.2816987272766487;0.4596181295238999;-0.30193303478147016
A;36.8;0.11894573861845448;-0.40442928183539895;0.053831886916629657;0.021696045446813805;0.6695073425184672;-0.2843324508786087;0.4654981280537154;-0.3041590607560174
A;36.9;0.12364236219209523;-0.40597860766557936;0.056851066328034605;0.01988362006834965;0.6735647757756444;-0.2867605883740745;0.4710793189148843;-0.30627744757285225
A;37.0;0.1280079887805723;-0.4075669387207119;0.059414049157494375;0.01815155530680812;0.6774813135718114;-0.2889890106864743;0.4763416000972365;-0.3082922870827973
A;37.1;0.1320509368664089;-0.40920461173349754;0.06153519665122342;0.016493455818222813;0.6812086810836808;-0.2910378164914378;0.48123663455939614;-0.3102226861282684
A;37.2;0.1358150421555262;-0.41087948659906104;0.06328632717699811;0.014928622147657222;0.684732196561197;-0.2929147287937126;0.48576960947470216;-0.31206848751191174
A;37.3;0.1393508732143438;-0.41258192470389243;0.06474786645392783;0.013474443484083665;0.6880295320838465;-0.29463363077089655;0.489940263782886;-0.3138347035121205
A;37.4;0.1426332375041799;-0.4143223360312076;0.06588855889486833;0.012114963181060645;0.6910644303366009;-0.29620684423191745;0.4937013616021817;-0.3155366944557727
A;37.5;0.1456340044806348;-0.41610671548919953;0.06667290810682935;0.01083680043641877;0.6938112674695889;-0.29764072669885033;0.49701619175617573;-0.3171840165004518
A;37.6;0.14833064967153042;-0.4179534677553658;0.0670727528746875;0.009616123970114465;0.6962162685419173;-0.29895954852514306;0.49981982591244023;-0.3188034803451991
A;37.7;0.15069707622738449;-0.41988149223389826;0.06705410374901533;0.00842707085496297;0.6982264558231792;-0.3001875566740746;0.5020468518906727;-0.32042234616607246
A;37.8;0.1527965634416253;-0.42186062212058406;0.06671325739751843;0.00730423840348049;0.6998599415344344;-0.3013191047409305;0.5037462686911862;-0.32202321606419027
A;37.9;0.15472299693182734;-0.4238478040424978;0.06619266363200982;0.0062994500393624975;0.7011508817641223;-0.30234372773517704;0.5049976754664813;-0.323578570579234
A;38.0;0.1565161351203459;-0.4258143479430885;0.0655539709534736;0.005439153450969236;0.702124682320699;-0.30325140873037304;0.5058490260591695;-0.3250700111710074
A;38.1;0.15822508478639286;-0.4277263175137227;0.06487166163623126;0.004755752327229246;0.7028155063124188;-0.30402889190420934;0.5063615842177267;-0.3264743207160352
A;38.2;0.15990995600213598;-0.42956233788133247;0.0642451509924804;0.004274705372671939;0.7032252534182;-0.30468346691303383;0.5065678413325179;-0.32778596704351415
A;38.3;0.16160582420127145;-0.43131223278895003;0.06373940165885195;0.004006064262584985;0.7033420063232976;-0.3052289639562944;0.5064757553438648;-0.32900958088958276
A;38.4;0.16340436685111737;-0.4329428941672866;0.06349355664253498;0.003991162190677855;0.703184819076915;-0.3056669056781618;0.5061478001546185;-0.33012937239202245
A;38.5;0.1653849299851755;-0.4344258416579354;0.06363187970371609;0.004264792981766519;0.7027685044260377;-0.30600126399341443;0.5056376517436849;-0.3311334002319768
A;38.6;0.16749400085117738;-0.43576750105247086;0.06408456224938508;0.004800201423313055;0.7020849747576827;-0.30623826848683633;0.5049211131131885;-0.3320330049727902
A;38.7;0.1696547003236457;-0.4369786532752382;0.06474143674483379;0.005560567673294159;0.7011291787207963;-0.30638061811951145;0.5039664132518817;-0.3328404109488394
A;38.8;0.17175950750917401;-0.4380857626763337;0.06547079234805864;0.006492187718933451;0.699871616486786;-0.30644503593353845;0.5027081873295423;-0.33358346834692476
A;38.9;0.17368218234182553;-0.439120628160242;0.06611339581934228;0.007532093765552972;0.6982796151857213;-0.30644908071495847;0.5010701546052996;-0.3342937889193722
A;39.0;0.17541737653630562;-0.4400745755881159;0.06664855926899449;0.008675954383916995;0.6963732843766897;-0.30638800982146597;0.4990722710449882;-0.3349664370884904
A;39.1;0.1769775096770454;-0.44093527114123354;0.06708297120933615;0.009927713868231436;0.6941767081859336;-0.30625711317477444;0.4967458722540732;-0.33559334994944034
A;39.2;0.17833498453135732;-0.4416981662313617;0.06735813067022622;0.011271661350453321;0.6917095829552729;-0.3060506287012488;0.49410099843688293;-0.33617284207340425
A;39.3;0.17947067895430102;-0.4423569592559202;0.06742549307602719;0.012695886361279385;0.6889954804192797;-0.3057616091091684;0.4911543754943706;-0.33670092719198763
A;39.4;0.18028719645589053;-0.4429420578616803;0.06718414856618438;0.0141504782093822;0.6860036077373195;-0.305413412630513;0.487845669093522;-0.33720767013888864
A;39.5;0.1806499570032125;-0.44349743257976026;0.06649717953344148;0.015566905271069409;0.6826834548126941;-0.3050394834369734;0.4840828960859973;-0.3377366916845457
A;39.6;0.18051292352715276;-0.4440417009666504;0.06532633649155972;0.016919028040079276;0.6790224020707845;-0.30465688622320064;0.4798414945876015;-0.3383050062035142
A;39.7;0.17982478739125796;-0.4445972372771916;0.06363169913286093;0.018177965713669586;0.6750033835361808;-0.30428568156038205;0.4750909635988414;-0.33893258465550513
A;39.8;0.17847060027966588;-0.445194367974163;0.06127683718313914;0.01928201882647773;0.6705943664288991;-0.3039488647996964;0.46976272042337275;-0.3396537684331813
A;39.9;0.17636286208624075;-0.4458528443729959;0.058147846291563;0.020181720856248475;0.6657783855953756;-0.3036618108657785;0.46381163396228775;-0.34049340586320476
A;40.0;0.17335777840231703;-0.44661703374048933;0.05408498130367789;0.020802290189871897;0.6605086364011159;-0.3034558273381811;0.45714459252308526;-0.34149602043945926
A;40.1;0.16932626625447966;-0.447525650302099;0.048941250416100424;0.021074821270244293;0.6547445577200399;-0.3033592479541407;0.44967950189776484;-0.34270218691770626
A;40.2;0.16434927574261415;-0.448556959425658;0.04280015395741721;0.02103029534177825;0.648533952335951;-0.3033610818143102;0.4414919669549917;-0.3440894992592156
A;40.3;0.15855952481935187;-0.4496784419654416;0.0358084275556525;0.02072546315959123;0.6419449774525319;-0.3034422630475091;0.4326947912932102;-0.34562055574988193
A;40.4;0.15209433627665803;-0.4508430977262998;0.02809549257441546;0.020213393617140696;0.6350490117504579;-0.30357970022060377;0.4234061293100897;-0.34725772322336645
A;40.5;0.14512134790463982;-0.4519954367276551;0.01982360863167365;0.01956140183150712;0.6279302561085025;-0.30374452417673625;0.4137667984327065;-0.34895431286825396
A;40.6;0.1376925611574693;-0.453135241823178;0.011062703422526354;0.018790108022875174;0.6206205761273198;-0.30393570827683236;0.40382549775601095;-0.3506982103093943
A;40.7;0.1298326323737573;-0.4542698147999822;0.001851863245767582;0.017906324947252195;0.6131389058492474;-0.30415803727691015;0.39360893787364315;-0.35248659330391163
A;40.8;0.12163808571331103;-0.45538932184498915;-0.007686532527464429;0.01695304389040242;0.6055368022787393;-0.30440161966557655;0.3831997140638226;-0.354292829545904
A;40.9;0.11319800078345388;-0.4564875160055495;-0.01743626380644958;0.015970006974358242;0.5978617710490859;-0.3046586680719785;0.3726737809955578;-0.3560930046633475
A;41.0;0.10461947449630671;-0.45751926567088663;-0.02731352244552543;0.014990078700614973;0.5901667303472884;-0.30491309675759437;0.3621210591745765;-0.3578634409119479
A;41.1;0.09603507577475057;-0.4584220890913002;-0.037222598376066784;0.014054008021855857;0.5825163012675105;-0.30514126957045784;0.3516523184489442;-0.3595731735330405
A;41.2;0.08749577061100311;-0.45917349588520473;-0.0471311358137072;0.013170209697553226;0.5749368322152506;-0.30534059980917183;0.3413120041308657;-0.3612167805054689
A;41.3;0.07905194662297266;-0.45974779465443927;-0.05701287103358332;0.012345029864222923;0.5674533088330982;-0.3055082022696358;0.33114302273846086;-0.3627899948330233
A;41.4;0.07084835940772205;-0.4600938931289207;-0.06673734918299878;0.011632741162116211;0.5601401603996088;-0.30561665924155834;0.3212686143548975;-0.3642523345887305
A;41.5;0.06301509361406765;-0.4601741448905061;-0.07617616290808815;0.011085136887845515;0.5530666367329857;-0.30564216127194443;0.31180138075432406;-0.365565763881432
A;41.6;0.05571641456457854;-0.45992138644847813;-0.08519415767448191;0.010759895750928727;0.5463108124448786;-0.30555273080269574;0.3028742402254565;-0.36668755187369584
A;41.7;0.04910587018633095;-0.4592756949542274;-0.0936619520480848;0.010711968108082282;0.5399476569383141;-0.3053176936789552;0.2946129693748034;-0.3675763376018457
A;41.8;0.04314259212681648;-0.45827366133288816;-0.10159815767026803;0.010921277438267651;0.5339639813797135;-0.3049562936038286;0.28698938920589967;-0.3682498970833299
A;41.9;0.03773318519526914;-0.4569732566915077;-0.10906874399681232;0.01134416060534349;0.5283181784084006;-0.3045020800182088;0.27992845377628495;-0.36874528229590897
A;42.0;0.032795537210588144;-0.45544052571587557;-0.11611200473771444;0.011951654251657118;0.5229889241855465;-0.30397813501477033;0.2733786722636662;-0.369083068084227
A;42.1;0.02821982115806687;-0.45375542619129305;-0.12278672665014412;0.012704473606613753;0.5179422041541413;-0.3034144348946799;0.2672666341639749;-0.3692919991531145
A;42.2;0.02398213810063421;-0.4519323961870363;-0.12912081358998506;0.013578993704931541;0.513156496412849;-0.30282738667637377;0.2615580633202965;-0.369394799099652
A;42.3;0.020083922860121284;-0.4499726048099264;-0.1351246013742342;0.014561378065157449;0.5086221933307717;-0.30222470683904357;0.2562381605721047;-0.3694052269481629
A;42.4;0.016455805292363124;-0.4479112966317427;-0.14085952716206585;0.015610565228437068;0.5042947281253163;-0.30163717702273063;0.2512370809837714;-0.36936179563700033
A;42.5;0.01303455190843561;-0.44577888113680153;-0.1463861435341256;0.01668642004951515;0.5001300920022702;-0.3010933193684022;0.2464863538224087;-0.36930215929589405
A;42.6;0.009769551951171351;-0.44362810691068333;-0.151716739279375;0.017777493394071975;0.4961302226741271;-0.30059596437101677;0.24196561508947845;-0.36922593704774886
A;42.7;0.00659404227962046;-0.4415297326139278;-0.15685939158714035;0.018875089376691356;0.49230272613553705;-0.30014745436856627;0.23765686982067713;-0.36912733686981003
A;42.8;0.003508053017508672;-0.4395040157022496;-0.16180590587121557;0.019979337900284833;0.48866122533244827;-0.29973625763073874;0.23356179853077474;-0.36899712971160437
A;42.9;0.0005136047851337366;-0.4375718600567353;-0.16654278259092425;0.021094058249462755;0.48522459446225596;-0.29934689483481103;0.22968828182330636;-0.3688209745425164
A;43.0;-0.002484404491729819;-0.4358088707783203;-0.17110372287224607;0.022194617617062207;0.481972258585615;-0.2990031375101023;0.2259888036790061;-0.3686156543497008
A;43.1;-0.0055744156625321395;-0.4342804297246383;-0.17552795444519376;0.023252498030838176;0.4788747695187485;-0.29873310247173146;0.22240908454313413;-0.36840562587239134
A;43.2;-0.008868699975439043;-0.433073193036444;-0.1798495025535498;0.02424626470416058;0.4759189197368361;-0.29855389775705854;0.21890626624913434;-0.36819747217045684
A;43.3;-0.012474562769150488;-0.43226850028255104;-0.1840993165268019;0.025155217709063038;0.4730892466334966;-0.29848522883327133;0.21543948246285627;-0.3680000267902068
A;43.4;-0.01633237798734566;-0.4318276478338259;-0.18826911838032334;0.025978204079832423;0.47038248982785724;-0.2985153954003059;0.21200959109236628;-0.36781801566336547
A;43.5;-0.020338761854400644;-0.4316778085968531;-0.19233864479031215;0.026722686123131112;0.46780508649654795;-0.29861659978246236;0.20863538153865147;-0.3676468854311725
A;43.6;-0.024414297559191667;-0.43176219625683565;-0.19628377131521635;0.027390137183236796;0.4653439110996036;-0.29879276490973217;0.20532638188730257;-0.36750364896172893
A;43.7;-0.028456446093228394;-0.43200723785531103;-0.2000761715701449;0.02798434111743031;0.4629865991223898;-0.2990435808403977;0.20209650380973354;-0.36740540388066645
A;43.8;-0.032434855925234984;-0.43237880908480353;-0.20370926200327322;0.02851250245584236;0.46074625312219997;-0.2993382621852265;0.19896473291055727;-0.36733128163897444
A;43.9;-0.03634902923911376;-0.43286035389903255;-0.20717691456347964;0.028981696343804764;0.4586351558723525;-0.29965289040599297;0.19595099258086712;-0.36725910509604276
A;44.0;-0.04011708294730898;-0.43338891988372374;-0.2104742308169154;0.029399999153308265;0.45666848727256504;-0.2999421365112904;0.19307095213586312;-0.3671689739869466
A;44.1;-0.04366842354083911;-0.43390481868213726;-0.21359562343151683;0.029777117333426695;0.4548634642897298;-0.3001601815259449;0.19034465746267237;-0.36703693867931975
A;44.2;-0.04698451697684991;-0.43438422865333237;-0.2165039072539976;0.030118050142196928;0.45319944784066823;-0.3003395811524894;0.18779304695869747;-0.3668844773043629
A;44.3;-0.05003182964595876;-0.43480174479006006;-0.2191575845105005;0.030423433565763602;0.4516417843308025;-0.30053127805835844;0.18542675866300584;-0.3667527408914779
A;44.4;-0.05286107394847317;-0.4351589075074527;-0.22152066998961395;0.030703365754643386;0.4501790090266615;-0.30076733872233374;0.1832836357285066;-0.36664357941608827
A;44.5;-0.055532260564596925;-0.43546366463122244;-0.22355357045340352;0.030967967196068535;0.4487959544961635;-0.30108891969068585;0.18140268992314557;-0.3665631855870961
A;44.6;-0.05793769428394757;-0.4356622112537947;-0.22524897032245672;0.031209209991296838;0.44746476991345663;-0.30150552613359816;0.1797597966053157;-0.3665499327825321
A;44.7;-0.05996517704772053;-0.4356960965904566;-0.22661248985169635;0.031418561593342;0.446165865312091;-0.3020073867912374;0.17832644693511757;-0.36663093152038684
A;44.8;-0.06151466308814246;-0.4355209597762757;-0.22761932686645903;0.03159092055208923;0.4448630737682979;-0.3026280959739114;0.17708811213214393;-0.36685716256202294
A;44.9;-0.06247743080171819;-0.4350927961117277;-0.22825804336678246;0.0317170703894325;0.4435209876095474;-0.3033918555842656;0.17601708438537234;-0.36727935718783566
A;45.0;-0.06295057361828249;-0.4344241758182781;-0.22853294939477564;0.03180989091094766;0.44216023214276845;-0.30427434899291805;0.17515205867453165;-0.3678504001493055
A;45.1;-0.06310980896690843;-0.43355522528459467;-0.22843787487005685;0.03189350210442132;0.4408162984151005;-0.30525239156357253;0.17456590662987903;-0.3684969772380917
A;45.2;-0.06299679293318228;-0.43249374094391246;-0.22804035792493593;0.03195897964220329;0.43951044270733775;-0.3062576480881849;0.17422936291011482;-0.3691755774582024
A;45.3;-0.06268099073358968;-0.43125468116171906;-0.22741103074866587;0.032000393177714415;0.4382718783310624;-0.3072144455441559;0.17412174025146498;-0.369828979232234
A;45.4;-0.062298088928666395;-0.42988768009501044;-0.22651343894577014;0.0320426743994604;0.43711513497254906;-0.3081439885076569;0.17431692654322806;-0.37042383737736095
A;45.5;-0.061934255692214;-0.4284387068857294;-0.22532109523542498;0.032101211130928675;0.43604236559295106;-0.30907240912784895;0.1748595021323549;-0.37095057560347655
A;45.6;-0.06181414398911489;-0.4269645621118876;-0.22377776056180654;0.03221809797700459;0.43508780205247355;-0.3100186613253908;0.17587522264397215;-0.37133776469716473
A;45.7;-0.06215276229745914;-0.42552839195057324;-0.22182683855131557;0.03243374072893168;0.4342819138210787;-0.31100751964209783;0.17748415132728468;-0.37152230008196074
A;45.8;-0.06281839011135748;-0.42412625726343034;-0.21961149184546525;0.032696074285015975;0.43361157152638263;-0.3119538031081679;0.17952398987888252;-0.3715299365952891
A;45.9;-0.06362054506061643;-0.42272751490925753;-0.21732422350202008;0.03293505470481328;0.43306223246696174;-0.3127338889440625;0.18177751883421056;-0.37138891508979555
A;46.0;-0.06437311615208241;-0.4213545871450135;-0.21509752124920745;0.03309217384599883;0.432600487744085;-0.31329540353729124;0.18406075552071677;-0.3711682326258243
A;46.1;-0.06484370317659316;-0.42002192129803806;-0.2130877973643326;0.033096970604713505;0.4321861441418733;-0.3135755379508498;0.18615299311398648;-0.3709513655488994
A;46.2;-0.06506909745163458;-0.4187020261592469;-0.21137470309145634;0.032939586971974855;0.4318441372302706;-0.3134910323584381;0.1880200963463068;-0.37068366772147776
A;46.3;-0.06516784129470299;-0.4173846221359039;-0.2099833664608708;0.03263438163431065;0.4316090817260294;-0.3129898673074627;0.18970101283021368;-0.3702908254690902
A;46.4;-0.06505725382519678;-0.41601852753054924;-0.20906783850321986;0.03213666040883645;0.4314902719133782;-0.311953317015941;0.1910555816138233;-0.36975343394273796
A;46.5;-0.06470303660103838;-0.4145477695190172;-0.208748974469259;0.03141730744963134;0.4315046679306276;-0.3102772556988822;0.19199075866363913;-0.3690355766424638
A;46.6;-0.06410356091560576;-0.4130628016796498;-0.208991744680195;0.03048183983012631;0.4316290454641596;-0.3080300109791767;0.19251343562121548;-0.36818930750068457
A;46.7;-0.0631756760748905;-0.4116867119751868;-0.20976439982016437;0.029320266461725808;0.4318132162427659;-0.3053141863581845;0.1925818703915727;-0.3673266155660748
A;46.8;-0.062166651846351506;-0.41048198631869415;-0.21087377085015202;0.0280154053886843;0.43207583603329436;-0.3022584570410287;0.1924379455987122;-0.3664070800174919
A;46.9;-0.0613306174838506;-0.4095348386672848;-0.21210321179225122;0.026655731436311392;0.4324304327984203;-0.2990164860215647;0.19233972762199425;-0.3654017520355586
A;47.0;-0.060396239452000344;-0.40888127058314616;-0.21356261377374697;0.02517089842786202;0.4328107399428971;-0.29560745600831195;0.1920642297677908;-0.3644614797634729
A;47.1;-0.0591101891378818;-0.4085030158915002;-0.21536982705994667;0.023493478806423163;0.4331628371894469;-0.2920266577301516;0.1913986843793083;-0.36371031557847644
A;47.2;-0.05713660698307077;-0.40853373867786047;-0.21763762744269322;0.021539613389339074;0.4333945666776282;-0.28832784009722845;0.19007571105969934;-0.3633556922270609
A;47.3;-0.0541155883438833;-0.4090875279245312;-0.22049404670453487;0.019218629194101666;0.4334123190878847;-0.28455509566206194;0.18780784697479191;-0.36360901740339635
A;47.4;-0.05051751142559269;-0.4100597686315801;-0.2236521852623854;0.016677083940546567;0.4332979136282722;-0.2808159085839512;0.18503399942100973;-0.36429090801158726
A;47.5;-0.04705622878153903;-0.4113612110860849;-0.22669207005614744;0.0141322138747082;0.4331766964023531;-0.2772566355431967;0.18240719867428812;-0.36512375070478953
A;47.6;-0.04407244940678812;-0.41278841140505484;-0.22942180756574526;0.011690243063289252;0.4331233244354822;-0.273923226192744;0.1802477600804231;-0.3659478285402882
A;47.7;-0.0419960180193204;-0.4140917089987157;-0.2316059704858615;0.009483049832375912;0.43323285139052103;-0.2708649221423376;0.17895473702527553;-0.36655786053736694
A;47.8;-0.041170235586229786;-0.4154656612380414;-0.23300096081220545;0.00762134627843114;0.43353980514540247;-0.2682255033429821;0.17884996378964235;-0.3668755326383133
A;47.9;-0.04171673161248446;-0.41718219918734434;-0.23348035085140584;0.0061512107841537045;0.4340341139930457;-0.2661244267916385;0.18005758875631184;-0.3669223561099386
A;48.0;-0.04424954219277044;-0.41925783121668303;-0.23265423846360367;0.005264065600946388;0.43480756247650376;-0.2647312912755049;0.18314657000195922;-0.36649078536432
A;48.1;-0.0492764607731635;-0.421775519847694;-0.23019286939455075;0.005118942411255212;0.4359291167553865;-0.26420337810771644;0.18858579021749122;-0.3654233041568107
A;48.2;-0.05637911717830679;-0.42463307703115216;-0.226328322180942;0.005598770456441748;0.4373378249902178;-0.26446043357182214;0.19601681020089767;-0.363865927339142
A;48.3;-0.06501693920570428;-0.4275017436975306;-0.2213794266768634;0.006550431882793362;0.4389703939606404;-0.2653577653211756;0.20497746276655882;-0.36197333558521283
A;48.4;-0.07430025143439867;-0.43066158530709053;-0.21584379856877334;0.007712054888169284;0.44065897729132963;-0.26677107719799364;0.21466055752531332;-0.36012575878758835
A;48.5;-0.08320524638022686;-0.43436829343354155;-0.21029964523826994;0.008781894891100706;0.44221668084457644;-0.26854234831361756;0.22413936665305823;-0.35874773823099027
A;48.6;-0.09176710443884595;-0.43795433906590553;-0.2047408519727245;0.009779501946799662;0.44368926301102274;-0.2706084615232549;0.23347649660682013;-0.35774216325706476
A;48.7;-0.10014271439973133;-0.44075922621465224;-0.19909060162294168;0.010759103503315437;0.44513542605567746;-0.27294011695445297;0.2428359710120871;-0.3569777684840343
A;48.8;-0.10822517730143222;-0.4419708597417378;-0.19342948050716746;0.011700466014596067;0.44659453828589424;-0.27541786789679046;0.2521673651453167;-0.3563801692259103
A;48.9;-0.11598039308892183;-0.4408076477913969;-0.18779959190803908;0.012604609506856157;0.44811963875778194;-0.2779298557384311;0.2614843402077023;-0.3558418495720126
A;49.0;-0.1225209183756828;-0.43781207010458534;-0.18269617431208474;0.013201766030941364;0.4495042680724044;-0.280407916127388;0.269938867173928;-0.3558112358617658
A;49.1;-0.12659598397744531;-0.43404129096652966;-0.17880865782976052;0.013110863489192326;0.45045206440126506;-0.282772174820201;0.2763372591187867;-0.35693708577734906
A;49.2;-0.1277468831672195;-0.4302819359339436;-0.17639703260209494;0.01218885416482518;0.45083459182762997;-0.2850119273391081;0.28021400064401814;-0.35948135870390807
A;49.3;-0.12544793160486734;-0.4272262084280998;-0.17575754405422295;0.010270334808092585;0.4504990680963443;-0.2871245854872817;0.28103083512075067;-0.3637563308413867
A;49.4;-0.11868439195713432;-0.4258305684929624;-0.17744724558704128;0.007056240061773522;0.4492495281094726;-0.2889841617395814;0.2778688208444411;-0.37021056338717706
A;49.5;-0.10671102405354205;-0.42701483580793287;-0.18187556104797498;0.0023325428325389197;0.44696517747593933;-0.2904640372280407;0.27007762897099763;-0.3791301779351084
A;49.6;-0.08822762552696961;-0.4304861680426679;-0.1897625946181547;-0.004292888387827709;0.44336515136148513;-0.2914389476273782;0.2564417336119318;-0.39114239007594076
A;49.7;-0.06206441715286637;-0.4361650341062431;-0.20175227230325365;-0.013169975950976465;0.4382058314230308;-0.29178665903001866;0.23588028074424194;-0.4067967081193542
A;49.8;-0.028941095280832663;-0.4442573426111416;-0.21746048820667419;-0.024078424230938644;0.43164921354572616;-0.29154519959531333;0.20905927996490892;-0.4257104007027719
A;49.9;0.009970527354638214;-0.45401505556762967;-0.23626513252565307;-0.03666726270814724;0.42393606646665116;-0.2908087154314951;0.17703569695787102;-0.4473064634093422
A;50.0;0.053448443253383715;-0.46754955415565913;-0.25748041932667753;-0.05054928747742071;0.4153834069205402;-0.2896195530921646;0.141013914960479;-0.47088683394513176
A;50.1;0.099998148292336;-0.48664107774580234;-0.28027237206333755;-0.06525506307799844;0.4063672749204841;-0.28804218311225194;0.10245081483929486;-0.4956180822898677
A;50.2;0.1492031790878725;-0.5073776336491669;-0.30444803658151187;-0.08067397973485235;0.3969307580991037;-0.28613870117462303;0.06164919235815347;-0.5213524279221469
A;50.3;0.20090744396204396;-0.5256189133057392;-0.32995115180886714;-0.09677268718370335;0.3870646146482599;-0.2839491953423079;0.018678276872825528;-0.548068108662509
