Condicao;Tempo_s;Ch1_HbO;Ch1_HbR;Ch2_HbO;Ch2_HbR;Ch3_HbO;Ch3_HbR;Ch5_HbO;Ch5_HbR
A;-20.0;-0.007623576169951463;0.02902113957495267;0.2803087455614248;0.05618658063956872;0.19468678529954886;0.028331532510105006;0.14527203764730956;-0.039826965536494896
A;-19.9;-0.01678784814568246;0.02784277959324477;0.2915456024929117;0.06274397529935172;0.19220837103642197;0.029655883767960134;0.14581094210798184;-0.04005426409915458
A;-19.8;-0.02599034263741551;0.026692804902895162;0.3029741549498475;0.06938981792131926;0.18904239523345368;0.030796033166271997;0.1456410726449242;-0.04023713452730959
A;-19.7;-0.035205421779380686;0.025549741474444332;0.31422525371351373;0.07598683853639088;0.18535506510570698;0.03176340608641404;0.14490585891528518;-0.04039558400807053
A;-19.6;-0.04411543214092184;0.024448151557162845;0.325225762422507;0.08248547074597035;0.18136813979544542;0.03257869901953114;0.14368703195607857;-0.040543067463568505
A;-19.5;-0.05225751737875939;0.023440188306141252;0.33594853498035615;0.08883953768649544;0.17738445789098733;0.03326954840898466;0.14209260781794697;-0.040694682240097535
A;-19.4;-0.05949740177586449;0.02255007344315274;0.34639646188758366;0.09504540657881222;0.173450625703925;0.03384330757993936;0.14010752276234406;-0.04085275607507022
A;-19.3;-0.06568204651585674;0.021807676008608112;0.3566064918124443;0.10111199478446586;0.16961180203121984;0.034308816463965996;0.1377057551065608;-0.04101870178953959
A;-19.2;-0.07037959431718654;0.02124271460158944;0.3664103764990472;0.10693305593482494;0.16622657593681112;0.03469177558808667;0.13508463950202731;-0.04121215209435647
A;-19.1;-0.07324548025437139;0.020870505543582496;0.3755943204141561;0.11239002411350985;0.16361236066589768;0.03501210167939739;0.13244407055991658;-0.04145095404513732
A;-19.0;-0.07376771700448437;0.02073726770497153;0.38402127361532923;0.11739073714274761;0.16218291502353566;0.03530779779967119;0.12998283145322986;-0.0417585610236344
A;-18.9;-0.07146432758666421;0.020882999871556507;0.39155686458945294;0.12184181012986617;0.16232899640907306;0.0356119977398599;0.12790146750046283;-0.04215581551631331
A;-18.8;-0.06662183475765993;0.021280940766752465;0.3981315276814694;0.12574395885551537;0.16382708501476628;0.03590538472816718;0.12611113362625126;-0.04263002156135265
A;-18.7;-0.05974369755234399;0.021892813731893668;0.40371235042496867;0.12914028289781632;0.16628024115037476;0.03616042752991788;0.12442096806162262;-0.04316061812573757
A;-18.6;-0.0512067639545819;0.022665307914937927;0.4082466523846211;0.13201886459189316;0.16938548114984897;0.03633400312580903;0.1227638879685582;-0.04372389886512629
A;-18.5;-0.041497269811062054;0.023535382342645406;0.4116895389279316;0.13438063491017216;0.1727553625022118;0.03637604711756737;0.12103473160238387;-0.044291458702817366
A;-18.4;-0.030875203432909615;0.024500207292399878;0.41401383256952595;0.13626877681991756;0.17620724216313377;0.036293030661703085;0.11910732313692485;-0.044858535300358326
A;-18.3;-0.019476424789898417;0.025566335168939247;0.41520369416762737;0.13771583123740028;0.1796546096590923;0.036098267404431894;0.11690708383683379;-0.04542437539457467
A;-18.2;-0.007766805294464163;0.026718139161049592;0.4152323727633114;0.1387923272883853;0.18275811755997395;0.03579030316462273;0.11421895675931282;-0.045977555574056694
A;-18.1;0.003813816654954394;0.027944286125896056;0.4140835170048378;0.13957274657553986;0.18520268694403796;0.0353721897738275;0.11083495891234563;-0.046508406494540466
A;-18.0;0.015157268216992037;0.02919820527118233;0.411774684706006;0.14001602862354057;0.1868793631232606;0.034801307468940834;0.10683821898985535;-0.04699471478965833
A;-17.9;0.026159975281228043;0.030414605713998455;0.40831781765153785;0.14005075408959167;0.18766775017887483;0.03401530716931234;0.10236283760823461;-0.047407032542427174
A;-17.8;0.036895528765830576;0.03157317463889164;0.40375383920072405;0.13964261818222123;0.18762332930338488;0.03299790266387781;0.0975434640303039;-0.047735539802996385
A;-17.7;0.047488714463881365;0.03265124956614329;0.39813779316771836;0.13874677578901018;0.1868369371589047;0.03172934771414937;0.09255267957231972;-0.04796958866318235
A;-17.6;0.05756978936322987;0.033587748332053025;0.3914230012692608;0.13733966923213137;0.18501206075632481;0.03016043448497463;0.08735570337354659;-0.04808164761278633
A;-17.5;0.0667127792503095;0.03433357825814909;0.3835454241091938;0.1354233441102055;0.18183010268674948;0.028257761937029002;0.0818567289900507;-0.048049755350023204
A;-17.4;0.07463152319621713;0.03481466756865359;0.3745213295498022;0.13295494023590315;0.17703631075703896;0.02595524953416195;0.07610297461683047;-0.04783981464760245
A;-17.3;0.08101522300258424;0.03496242610551725;0.3643446530209067;0.12989869920095298;0.17037038989457187;0.023194731528461077;0.0701148325835792;-0.04742102473215937
A;-17.2;0.08593665827080166;0.034814790946052554;0.3530396721937423;0.12630482320129532;0.16197438899397554;0.020030257759191983;0.06389703738629215;-0.046811194613338714
A;-17.1;0.0896681990756214;0.034437717212474794;0.3406969011828904;0.12224143566587964;0.15216107092170716;0.01654213774508939;0.05750881298983934;-0.0460399227262176
A;-17.0;0.09212748527458992;0.033889006118728915;0.32720554893119225;0.11778242243324488;0.14100732480660483;0.012814673521400977;0.05081575587805531;-0.04513783418245687
A;-16.9;0.0932834853572242;0.03324152005310488;0.3124608965518263;0.11301518734497451;0.12864578625532985;0.008948322774298134;0.043679597472849;-0.04414256263932437
A;-16.8;0.09346492769510206;0.032522480182988645;0.2966836146237428;0.10797443448781108;0.11537063081181387;0.004976078287906915;0.036279202403447286;-0.04306370543092619
A;-16.7;0.09293664234026444;0.03174318036174384;0.2800823696921002;0.1026806596792893;0.10141396167991346;0.0009148255802955418;0.02879012185407781;-0.04190419305923143
A;-16.6;0.09217376223630325;0.03095647456679984;0.26292347205465116;0.0971903683187838;0.08720118048302439;-0.0031774203144490087;0.021421652036849537;-0.04068466383268721
A;-16.5;0.09166984742182116;0.030211128888222305;0.24549591019126904;0.09155605466098926;0.07316391840301861;-0.007248083577172437;0.014401600414551297;-0.03942362048524828
A;-16.4;0.09108053092188229;0.029537041652320184;0.22755879938013646;0.08582663791327327;0.0591818175683656;-0.01123421773744937;0.007495813153006736;-0.03814386814147497
A;-16.3;0.08984144295341068;0.02897052514552456;0.20870895895359975;0.08006195657935056;0.04500575600310697;-0.015056806652481214;0.0003249717390829687;-0.036875065487624425
A;-16.2;0.08766472859334762;0.0285131691406999;0.18881674153537098;0.07428593908909509;0.03050851659383369;-0.018688814332042725;-0.007254187281432678;-0.035624913886932674
A;-16.1;0.08417365118517672;0.028162534011990203;0.16769928677897727;0.0685197706365912;0.015501059213328006;-0.022104639394923353;-0.015431578633089416;-0.03440081989866961
A;-16.0;0.07918488775324128;0.02797736010631624;0.1451712777558658;0.0628431456475349;2.271038219703314e-06;-0.02521435059436783;-0.02440496142087234;-0.033237473053000954
A;-15.9;0.07271792869406646;0.02801647850351152;0.12119303556340277;0.057335227118733734;-0.015843681006671773;-0.027936211441671688;-0.0342512996777522;-0.032166102892567494
A;-15.8;0.06436765364661312;0.02833687655783379;0.09541592191732118;0.05207194427779349;-0.03215936131383401;-0.030174036838703344;-0.045306142403530814;-0.031225413770576083
A;-15.7;0.0538109087141212;0.02899463223947052;0.06755482547128278;0.04712999713846777;-0.04902041093156484;-0.03183658151404423;-0.05785393711915887;-0.030452088957016343
A;-15.6;0.041408981558836544;0.029966135384906778;0.038008119738493384;0.04250868929163509;-0.0661940410745423;-0.03295419643430364;-0.07160516144765161;-0.02983031402466807
A;-15.5;0.02760351264111982;0.03119856212642169;0.007291555262843197;0.03817559079996791;-0.08344065462925343;-0.03359528546937085;-0.08616879069266048;-0.02932887538480422
A;-15.4;0.013108898684555115;0.03267004372070481;-0.023932786471329237;0.03414033659769977;-0.10031606064050536;-0.03380435578201357;-0.10103999838466038;-0.0289253795369131
A;-15.3;-0.001258836862779944;0.034347629325131024;-0.05490411130860551;0.03040158479942434;-0.11633036099386729;-0.033643432292409514;-0.11563182090580248;-0.028590103685635526
A;-15.2;-0.015487655776475151;0.03619104918969818;-0.08547986856118683;0.02692897972525987;-0.13149751443253876;-0.03315075676598056;-0.12985741996475753;-0.02830827096286015
A;-15.1;-0.029663378682514008;0.038171524437744964;-0.11562068769899536;0.023703516820686943;-0.145880271400884;-0.0323482538155222;-0.14371492853540602;-0.028072877616841296
A;-15.0;-0.04366261020797246;0.0402261578280978;-0.14504927966067616;0.02067069231402474;-0.15945401632292544;-0.03130509128032166;-0.1570076954352011;-0.02785583824658211
A;-14.9;-0.05741895511268069;0.04229200359703711;-0.17353889903435515;0.017773753918025825;-0.1722326945959587;-0.030089088918678897;-0.1695782671066386;-0.027630597981451288
A;-14.8;-0.07025233040615397;0.04437649799158372;-0.2005310404041376;0.01505732733397025;-0.18377553372452837;-0.028714655790931687;-0.1810075790170984;-0.027389965873139133
A;-14.7;-0.0812108993578331;0.04650112015607455;-0.22527827114212684;0.012590455694016178;-0.19345775107918683;-0.02719129480444593;-0.19072827075717314;-0.027126879304455898
A;-14.6;-0.08993824174997833;0.04868052639164233;-0.24751473273359537;0.01041399538230614;-0.20103810736455685;-0.025514569835737078;-0.1985505647890644;-0.026846032414221455
A;-14.5;-0.0960345739752082;0.05093735898024576;-0.2669622062402057;0.008579010205984616;-0.20624296855066504;-0.023673747180255944;-0.20427358991094025;-0.026554993123300008
A;-14.4;-0.09869416647127238;0.05325688955467456;-0.28290003520521356;0.007105837131042847;-0.20857367792415715;-0.021712261115833797;-0.20735629772048547;-0.026232030385459737
A;-14.3;-0.09730031175505616;0.05560971320779551;-0.2947286113082468;0.0059903049168568145;-0.2076646430949367;-0.019682550988767034;-0.20735376898066527;-0.025852881267763195
A;-14.2;-0.09086534729424933;0.05799633269081461;-0.30163106012948226;0.00527562462807829;-0.20290017453135434;-0.017621394476742935;-0.2036404818712345;-0.02539896771301997
A;-14.1;-0.07848789989382254;0.06041248152924261;-0.30284724269418994;0.004995466153890682;-0.19372100606275566;-0.015567155573659619;-0.19563759557183324;-0.024851227737443082
A;-14.0;-0.06066396069259028;0.06283566383912209;-0.29874309644302866;0.005112549874567662;-0.18046535102041972;-0.013526597878779967;-0.18364928785658563;-0.024217497796827914
A;-13.9;-0.038250771888973745;0.06524756471507764;-0.2900114622524663;0.005581286263505625;-0.16370412252839017;-0.011490986474948173;-0.16822814238640404;-0.02351720310187133
A;-13.8;-0.012057587931565195;0.06760413438285262;-0.277195965228926;0.006325925789885112;-0.1439727982600303;-0.009474569136905586;-0.14983350169322485;-0.022753815952386347
A;-13.7;0.016904080089599205;0.0698583238632331;-0.2610046447557375;0.007259377479767792;-0.12193876886414756;-0.007487878374238477;-0.12905286004992433;-0.0219344239870658
A;-13.6;0.048267723500751814;0.07201441446239798;-0.24181034805836;0.00837785704095051;-0.0978667061238383;-0.005522110660756141;-0.10616647757985653;-0.021077090687029454
A;-13.5;0.08185904281662282;0.07407995985311722;-0.21983060827555168;0.009687275230174208;-0.0718959160004431;-0.0035720190100505533;-0.08133255661108052;-0.020195951684254254
A;-13.4;0.11699478874073321;0.07605872750691134;-0.19571853700909347;0.011170979164230488;-0.04450180503028989;-0.0016200547359801476;-0.05504642188451392;-0.01931747942819584
A;-13.3;0.15303473376257237;0.07795824627742753;-0.17010577548211003;0.012817586861681995;-0.016132995847719656;0.00035267074359346395;-0.02778234716340222;-0.01846862022948592
A;-13.2;0.18945009093321197;0.07973134638261392;-0.143265315946425;0.014552257389982337;0.012865493884120838;0.0023207644615510503;0.00020250028275903276;-0.017640611531621886
A;-13.1;0.22560653591029478;0.08131070974713417;-0.115473449521037;0.01627153623558275;0.04208633108597226;0.0042463914039050366;0.02862723660154387;-0.01681611347448353
A;-13.0;0.2613079753187737;0.08266718118767713;-0.08679158138783372;0.01793241042625393;0.0713947727922033;0.006106763460744347;0.05741995483468898;-0.015986041653102134
A;-12.9;0.2963883774558358;0.08376741041673341;-0.05723251577603339;0.01948701712937062;0.10067910308515238;0.007875088007851971;0.08654131750417626;-0.015137442428885706
A;-12.8;0.33001663333524967;0.08456124096303874;-0.027347397642257576;0.020844703728834624;0.1293794899295655;0.009529921037316313;0.11551921406577925;-0.014269527281227212
A;-12.7;0.36139005418765713;0.08501326956214506;0.0022622438793016286;0.021933328904297333;0.15694275715832262;0.011059017787403036;0.14386069282903513;-0.013389359594563999
A;-12.6;0.38963695891599137;0.08506076316286837;0.031085558549766468;0.02264357501345149;0.1827986507455499;0.012434454508088777;0.17110717374420226;-0.01248789226766256
A;-12.5;0.41392091408342147;0.08464689481242971;0.05860710244585654;0.02287417796318092;0.20639136550556358;0.013630567255823678;0.1968041035590833;-0.011558800153160576
A;-12.4;0.4344185898028492;0.08380322858410594;0.08479713565838054;0.022665424260626565;0.2277890613545388;0.014655332736372984;0.22097765900575084;-0.010615889064466089
A;-12.3;0.451629907407721;0.0825838253101665;0.1098250246056951;0.022094705336749954;0.24727230372011277;0.015525067914060386;0.24383138452278885;-0.009674356344561374
A;-12.2;0.46584461886469697;0.0810410367760852;0.13361992501228226;0.021231854517653304;0.26494382791857163;0.0162547295303348;0.2653875803278716;-0.008759857239923008
A;-12.1;0.47749344206044597;0.07924032095186462;0.1561751724133149;0.020167008920548568;0.2809928325209654;0.016864553964097695;0.28573370388205;-0.00790102738461762
A;-12.0;0.48681823311541983;0.0772058551168211;0.17761372609124848;0.018928926590722206;0.2955691760846122;0.01736134775387299;0.3049911649018249;-0.007098963690877369
A;-11.9;0.49393142624107256;0.0749497260490255;0.19799794645840496;0.01752671261922778;0.3087408536142249;0.017746801413615287;0.32321790445761955;-0.006351639867769876
A;-11.8;0.49931870490808095;0.07251630865996894;0.2175846737523628;0.01602129544486708;0.32081719950604537;0.01803625305016432;0.34066491145593325;-0.005662863260836204
A;-11.7;0.5034561377601392;0.06994757516623551;0.23664115533690566;0.014469520155683924;0.3321064654985939;0.018244453712412678;0.35758520342708167;-0.0050344357973397535
A;-11.6;0.5064087713749998;0.06727851384003714;0.25494125192402883;0.01291083222700351;0.3425440715107335;0.01837669679888343;0.37385552477166684;-0.004490542652902718
A;-11.5;0.5081995175329173;0.06455076388217407;0.2721400240685048;0.011393269740159084;0.35200321840233073;0.018439136927662858;0.38927731519696884;-0.004064688151931506
A;-11.4;0.5087419544015308;0.06177973825199068;0.28800675225801164;0.009924303137209378;0.3603502278159709;0.018431744156366392;0.4036861962143341;-0.003770583595789745
A;-11.3;0.5079046967400682;0.05897909595091555;0.30226435535365326;0.008508010168593039;0.3674125875316179;0.018353171282281977;0.4168793842487535;-0.0036234151303951023
A;-11.2;0.5059483411425383;0.05620327624356314;0.31478617303176204;0.007214568769980723;0.3732618981055751;0.01821889759918882;0.42884662357446324;-0.0036503893526731446
A;-11.1;0.5031926699312308;0.05350553128911173;0.3255493408895811;0.006113014962366492;0.3780393308984138;0.018046684149485515;0.43965231310324526;-0.003872049673615763
A;-11.0;0.4998784753129044;0.050942567943659256;0.3343539879770212;0.0052769948357296315;0.3817712311012187;0.017849933230390747;0.44923023664013684;-0.004321276513080008
A;-10.9;0.49624610260852364;0.04856927303539038;0.3410296679029967;0.004777519718881074;0.38449955345611997;0.01764313908940629;0.4575349349032827;-0.00502791428872662
A;-10.8;0.4922680884849413;0.04638087065777441;0.3456653765212536;0.004591940603292599;0.3862490013108264;0.017429043122772825;0.46459722897826516;-0.005976177568644658
A;-10.7;0.48781970005873276;0.044353175612871;0.3483973113067389;0.004667693057341715;0.3870114985567916;0.01720416886874787;0.4704400255200536;-0.007138256008749622
A;-10.6;0.48286153724851033;0.04247545157366872;0.34941600729640854;0.004973682747581698;0.3868686796672911;0.016976418189550202;0.4751740564950744;-0.008487644641315129
A;-10.5;0.477323465450775;0.04072873989033532;0.34895590439726654;0.005466065414005961;0.3859059407162455;0.016752358654057886;0.4789264616093458;-0.009991079917432089
A;-10.4;0.4711637086553644;0.03910312544692296;0.3470585457398325;0.006117733038734308;0.38409552468421637;0.016526625737466105;0.48166576169533215;-0.01163550294423743
A;-10.3;0.46437085088572516;0.03759611646146155;0.343729620557383;0.0069143544830110315;0.38141103539180676;0.016295623732405673;0.48335117361672175;-0.013413718284345677
A;-10.2;0.4568463152809059;0.036183701217211706;0.3390681223382668;0.007805623106683868;0.377817103057005;0.016050397804113103;0.48396095795688154;-0.015302426929347135
A;-10.1;0.44849698641812985;0.03484209773072067;0.33316607875433313;0.00874280690396212;0.37327490831642507;0.01578119482948459;0.48346774040464524;-0.01727932217607453
A;-10.0;0.4393296192120957;0.0335735097672476;0.32617852745023246;0.009719436020371397;0.36789526295798325;0.01550364639832047;0.4820031445104096;-0.019325345183458964
A;-9.9;0.42936497865559176;0.03238364256826465;0.31830824731703533;0.010733312383513827;0.361839262947683;0.01524083511392682;0.47975816271699223;-0.021418284339752347
A;-9.8;0.41866729458664587;0.03128202016817028;0.3096544277376294;0.01179456174718485;0.3552037630112217;0.015005187650341867;0.47683026836024744;-0.023548419717458913
A;-9.7;0.4073119061541739;0.03028072722669961;0.30032029742631394;0.012918378090114757;0.34810050229459577;0.014811577493951233;0.4733329137329605;-0.025706678438925934
A;-9.6;0.3952830771916389;0.02937168644891841;0.290525886626118;0.01407711436590553;0.34064945470939634;0.01467344902085621;0.469414689392309;-0.027865264696524505
A;-9.5;0.3825654498348481;0.028542761452774457;0.28047667153224864;0.01523701538268174;0.3329428193065205;0.014598152277370602;0.4651890606017872;-0.029997189330263296
A;-9.4;0.3691285999270324;0.027786598554163433;0.2704126350995866;0.016374574848880386;0.32512780770673544;0.014604704487892306;0.4608464697915906;-0.03207244892227834
A;-9.3;0.3549560383839001;0.027095755751220807;0.26056766720209534;0.017465573731537454;0.3173456574130249;0.014709967564986215;0.4565649620284358;-0.0340622948675815
A;-9.2;0.3401621723302153;0.026472570313998744;0.2509537890029767;0.018515695759390383;0.30960016415159686;0.014904850852234475;0.4523122734681966;-0.0359670678761006
A;-9.1;0.3248854271702335;0.0259225559702827;0.24151311151773758;0.019543072678631646;0.30185958962209014;0.015174855810300869;0.44800741018524626;-0.03779559692392276
A;-9.0;0.3093016219330007;0.025449318369055618;0.23223389432701858;0.020549335213468467;0.29410458154404395;0.015502760375889935;0.44356473251402306;-0.03955341241765353
A;-8.9;0.29360453854894786;0.025057263129674823;0.22307474042976594;0.021539829371815422;0.2862964397608856;0.015867416992083605;0.43886961880149045;-0.041250033578720036
A;-8.8;0.2778459196643279;0.024746440660916136;0.21402789341531214;0.02252742019818932;0.2784439797805369;0.01626522283523535;0.43392442883656557;-0.04288489032347087
A;-8.7;0.2620618994475521;0.024515863197686727;0.2051126243930419;0.023520525902976708;0.27057615354151565;0.01669635580311457;0.42876086666132984;-0.04445390117067305
A;-8.6;0.24632792109194668;0.024366771072051208;0.19627650315808953;0.024541310684456086;0.26267262589490414;0.01715146724129646;0.4233412499375806;-0.04596287636524643
A;-8.5;0.23070658918462783;0.02429972714394424;0.18746585230501545;0.02561161205921092;0.254714846444287;0.017622363611220493;0.41763506489308355;-0.04741709661854898
A;-8.4;0.21538241040014583;0.02431770899207386;0.1787185969589702;0.02672075902489368;0.2467233140346643;0.018096590096821075;0.41159869575967534;-0.04881784844560677
A;-8.3;0.20059453386769022;0.024424841089603078;0.1700907725903429;0.027851506154294547;0.23871979347869754;0.018557356793717616;0.4051670504952476;-0.05016755897289471
A;-8.2;0.18644833609047673;0.02461987514222308;0.16163238321921103;0.028988374337760803;0.23074101337558517;0.018999877495536666;0.3983449473244409;-0.05146177420634146
A;-8.1;0.17305681981333265;0.024901626395742227;0.15340103305343522;0.030112110477635845;0.22282800245705658;0.01941937221065615;0.3911379081432038;-0.05269569727705026
A;-8.0;0.16062735934618466;0.025272027219992665;0.1454191073147859;0.031222349672699323;0.2149766635647694;0.019796734416335227;0.38347195687416047;-0.05387539230859595
A;-7.9;0.14932216503091844;0.02573075905271338;0.13769366317210263;0.03232485162932086;0.20717523111605374;0.020114704554069718;0.37528461656780543;-0.055006525744792256
A;-7.8;0.1393886925500496;0.02628238532318683;0.13024404669928913;0.03341245873228704;0.1994206240660752;0.020352256497050192;0.36648324420980316;-0.05609767503372254
A;-7.7;0.1310508710608289;0.02692969436985848;0.12309142398610717;0.03448012392296551;0.19170810740786592;0.020489245208894502;0.35698424517391025;-0.05715653953565969
A;-7.6;0.12420200769172318;0.027660822395073836;0.11624030414482434;0.03552584201313458;0.184059572518656;0.020532953911272855;0.3468639462441434;-0.05817337845468806
A;-7.5;0.11865065839099387;0.028461454412751053;0.10968278510414553;0.03654426378036035;0.1765067837371319;0.02049911533479687;0.33623957537695226;-0.05913457757871221
A;-7.4;0.11420672163677459;0.029312531180003987;0.10344582957484683;0.03754385770831714;0.16906817990986056;0.020397673591116217;0.32522527433333615;-0.060025951340614725
A;-7.3;0.11063080534414027;0.030192790624855803;0.09755157333825171;0.038533716845924104;0.16176414035012598;0.02024237157583819;0.31395675301130765;-0.060831156016496024
A;-7.2;0.10784842387213445;0.031096619039903572;0.09196851726592126;0.039500753562011326;0.15461658525151023;0.020041641325658333;0.30248649062036037;-0.06154619854559229
A;-7.1;0.10582853490447341;0.03202019664210276;0.08667199745262177;0.0404320714392421;0.14764315793998506;0.019799981782293585;0.29084568532885235;-0.06216982158518114
A;-7.0;0.1044201358106207;0.03295515725404918;0.08161265792228711;0.04131236519256731;0.14086962337048803;0.019532575839502186;0.27911878650511746;-0.06269456577766341
A;-6.9;0.1034823135195051;0.03389432069297271;0.07673752758093322;0.0421254256281367;0.13432056181800434;0.01925415555591492;0.26738370947951573;-0.06311437982896706
A;-6.8;0.10287669384176645;0.03481806257574327;0.07211244143632811;0.04288679431557263;0.12800133657513513;0.01896648803574763;0.2557274538149201;-0.06341905159747441
A;-6.7;0.10243135021122285;0.03570108490142232;0.06783286345627904;0.043621487952842486;0.12191210896703453;0.018669917371468614;0.24425402020825437;-0.06359494086991901
A;-6.6;0.10209100938762106;0.036531256297759995;0.0639469764915015;0.04434057653052825;0.1160527049702047;0.01836178356214191;0.23300523401982254;-0.06363973876433526
A;-6.5;0.10180462469535456;0.03729561546887972;0.06051587783932888;0.045058552289740206;0.11041997965597616;0.018037787796272298;0.2220211154823719;-0.06355135133771128
A;-6.4;0.1013593165108162;0.03797176101127597;0.05756838448028656;0.04578674832569529;0.10501743579935052;0.01770602343838057;0.21141221313232528;-0.06331570312961787
A;-6.3;0.1005547341310482;0.038541551598152424;0.05509713041733644;0.04652847834037299;0.09984985391284695;0.017376758714895857;0.20127692310112977;-0.06292129752363707
A;-6.2;0.09916097926906708;0.03897868675859151;0.05317492605557561;0.04730510258518272;0.09491754995341495;0.01705604235793068;0.19173863833460736;-0.062352376704080115
A;-6.1;0.09695912377726579;0.0392590218048916;0.05185484639542359;0.04813433787827481;0.09021939929571232;0.0167503518650296;0.18291093062289043;-0.061594574472552566
A;-6.0;0.094004107372891;0.03939030864607673;0.051062799144925286;0.04900043941201293;0.08575315073648682;0.016459771109605725;0.17475879977404674;-0.060660766637882446
A;-5.9;0.0904349000287894;0.03938861319992526;0.05071644682870691;0.04988323530089378;0.08151576332215527;0.016180823126742183;0.1672067298923352;-0.059571868003672535
A;-5.8;0.08634477446180355;0.03926942432603475;0.050654388992813715;0.05075050987134677;0.07750070375308127;0.015915884111819878;0.1601835362636379;-0.058344705446886636
A;-5.7;0.08186493260417294;0.03905297512487138;0.05069576163693412;0.05156529038782676;0.07370068386868667;0.015666560122275186;0.1535963783923151;-0.05700013509077628
A;-5.6;0.07705936328952312;0.03874448027719346;0.05085689748762512;0.0523282210836431;0.07011211788313076;0.015428473169428969;0.14742038401974256;-0.05555120862374885
A;-5.5;0.0719575185315513;0.03834504370581726;0.05117003542708698;0.0530444838210018;0.06672994752415917;0.015197947256709199;0.14164830026469133;-0.0540070444662657
A;-5.4;0.0666851832840063;0.037867251578445504;0.05163316872141177;0.05370967210702027;0.06355007538750002;0.014968597016837393;0.13622225251519815;-0.05238801191071296
A;-5.3;0.061364992351832015;0.03732286957368203;0.05225831217220556;0.054322035546837455;0.060568016978624684;0.014733623216594438;0.13108795786153138;-0.05071378509748392
A;-5.2;0.056034247465005294;0.03672255027400695;0.0528653555243368;0.05485037515057467;0.05776821918777131;0.01449808257366314;0.12618995664921506;-0.04899393984357836
A;-5.1;0.05072485426099682;0.03607978477749718;0.053197417678870984;0.05525084118718926;0.05513185839864576;0.014270473648617;0.1214590740585848;-0.0472381689547845
A;-5.0;0.04543195912393294;0.035397876266310746;0.053155864327139035;0.05550754615967257;0.05264448797564114;0.01405471934902458;0.11687467645637462;-0.045449980552486835
A;-4.9;0.040140992322921676;0.034679810075221695;0.05262589309564358;0.055602343463069914;0.05029002213238343;0.013855850429242977;0.11241670026575612;-0.043631346967460516
A;-4.8;0.03493221757631382;0.03394324608222199;0.05140429938085678;0.05549953033649846;0.04805423811863818;0.013677970026261477;0.10800359190279174;-0.04180020194390188
A;-4.7;0.029895062671249306;0.03320495074449248;0.04934526999855127;0.055172815761704186;0.04592611010160752;0.013522582293161278;0.10356119336599434;-0.039975978251295174
A;-4.6;0.0251113923317412;0.03248461308582051;0.046185994282167186;0.05457655500710956;0.043886295793367225;0.013395997031768303;0.09899403767753512;-0.03817442875070576
A;-4.5;0.020658710762214483;0.03180104999603017;0.04168887748564298;0.053669632828065694;0.041917371982279406;0.013303795522000783;0.09421363854303522;-0.036411672288998886
A;-4.4;0.016526596185695297;0.03114889507788199;0.03599904702814882;0.05247751629436781;0.040015561013479584;0.013241067890954028;0.08925050715380678;-0.03468989924032684
A;-4.3;0.012678324537544583;0.030515800970494666;0.02935279963302939;0.05104161257988782;0.03817802507787249;0.013200568605247653;0.08416562152166662;-0.03300469687068386
A;-4.2;0.00908142191963357;0.02989291837012864;0.021990603878496273;0.049404733370644216;0.03641033615318534;0.013174814718295735;0.07901915933357984;-0.03136123360010501
A;-4.1;0.005692542693081393;0.02926814759384122;0.014208476692819438;0.04761932638076516;0.034720226505445595;0.013154770881005362;0.07388768531901135;-0.029762747689449753
A;-4.0;0.0025085914718090407;0.028637347416314185;0.006088777501931375;0.045700023518429944;0.033094426747901196;0.013137193180245532;0.0687841638609612;-0.028203720411806188
A;-3.9;-0.00046604255815907436;0.027999758411709763;-0.0023420284148896187;0.04365211640454181;0.0315182971775414;0.013120525836800567;0.06370656168823885;-0.026680363478355673
A;-3.8;-0.0032473646134540957;0.027345643507102224;-0.010912453062638328;0.041505212308029726;0.029981018705122153;0.013099125305588544;0.05869251214757476;-0.02518279408901236
A;-3.7;-0.005849746016405533;0.026665985761850308;-0.01946803240024675;0.039286110521847384;0.028470410748337116;0.013067783273124078;0.053775066431320795;-0.023700367177431403
A;-3.6;-0.00830894305619978;0.02595780877249254;-0.027848986946660936;0.037025477611816626;0.02699605252011139;0.013022123086782855;0.04899953564610904;-0.02224398120043425
A;-3.5;-0.010669983785103199;0.025217642829908016;-0.035848678027337044;0.034762578757984386;0.025576251085542623;0.01295680309195113;0.04442590473895969;-0.02083037809718391
A;-3.4;-0.012949542318237306;0.024448102649621717;-0.04342245641591802;0.03250851697145585;0.024211616249015577;0.012870116462035952;0.04006512925376171;-0.019468416832815194
A;-3.3;-0.015166599102398592;0.02365268138150256;-0.050531792295904765;0.030273699811523613;0.022905606980561544;0.012760730607947579;0.035928804567880945;-0.0181689679698529
A;-3.2;-0.017350225052002344;0.022823156246179366;-0.05691434757390201;0.0281047426068044;0.021671464461562095;0.012621418131178785;0.03208166756361308;-0.016939766880845752
A;-3.1;-0.01951675160739086;0.021951051843219105;-0.06232570825052619;0.026044328052675425;0.020515882305520705;0.012444996606957304;0.02857800850878789;-0.01578344158639311
A;-3.0;-0.021714990494968944;0.021027885964187476;-0.06648542909416921;0.024143279331654277;0.019463351177726906;0.012224706934366836;0.02549978850834478;-0.014712069606474643
A;-2.9;-0.023981740529427142;0.02004549382129106;-0.06912268176845604;0.022450007456876975;0.018536297539473168;0.01195386335162496;0.0229219990866234;-0.013736038708762166
A;-2.8;-0.026279592944781882;0.01901038155671131;-0.07034661053810698;0.020946739941855697;0.017710428923368937;0.011633382684795635;0.020796932474153706;-0.012846817514411413
A;-2.7;-0.028562473517020237;0.01793372645606084;-0.07038659253306889;0.019595581361309122;0.01695384700794378;0.011267330862727576;0.019048626670226554;-0.012032202493323041
A;-2.6;-0.030737886619260024;0.01682288723785419;-0.06937398518510296;0.018371306548439215;0.01623232386026885;0.010856228646806798;0.01760040263926399;-0.011277501990001326
A;-2.5;-0.03270325905167404;0.015687183335851174;-0.06749365717550937;0.017239395520653567;0.01550502710533408;0.010401660994666884;0.01635817419391472;-0.010565100377435854
A;-2.4;-0.03446216908132271;0.014533175480494265;-0.0648737646481452;0.016180758187810618;0.014771404849309278;0.009907730574804319;0.015305075486349295;-0.009891201812802564
A;-2.3;-0.03602195227044369;0.013365124951077334;-0.06158362102372461;0.015185762923091595;0.01404161690484429;0.009377709185763194;0.014443787794128582;-0.00925498658509305
A;-2.2;-0.037386926789816144;0.012193622467824738;-0.05785927308019989;0.014218473641919083;0.013298659607148267;0.008817513230368945;0.013724763488310643;-0.008648198385202477
A;-2.1;-0.03856570261097403;0.01102872090643281;-0.053927881385702925;0.0132443704214813;0.012531763750605052;0.008233438806028559;0.013106890271112448;-0.008063618813428874
A;-2.0;-0.03943557464650205;0.009872687500875443;-0.0497885454091076;0.012256669391484287;0.01172849135551246;0.007623786256901965;0.012541951654611694;-0.007490735430062401
A;-1.9;-0.039834880066155876;0.00872725190725987;-0.04541730155511914;0.01125023112752821;0.010862663657622562;0.006984534410076293;0.011959679975658943;-0.006915430590369809
A;-1.8;-0.03967003731628793;0.0075908191536075975;-0.040736396543454845;0.010231155141076087;0.009954882120091213;0.006315058757397907;0.011364562233939779;-0.006333602703714192
A;-1.7;-0.03883508772828037;0.006460622186311937;-0.035639436465556784;0.009209180399652794;0.009027587686183836;0.005613979641486466;0.010762787054000356;-0.005741327173200972
A;-1.6;-0.03723874128964688;0.005343819001554451;-0.03025921904409934;0.008160153032505946;0.008029333933816218;0.004879880058252795;0.010055404949063984;-0.005121988652394549
A;-1.5;-0.03483014573444265;0.004248675722472228;-0.02477136160052762;0.007055715292348275;0.006911749207748841;0.0041131759276087365;0.009152262384159116;-0.004460310089026365
A;-1.4;-0.03147328293752416;0.003180545629058784;-0.019263307054669276;0.005875648431128866;0.005623083589828326;0.0033109339152304074;0.007944935773592121;-0.003739062621827216
A;-1.3;-0.02705860560265272;0.0021451295040044727;-0.013841262988441017;0.004598841319370273;0.0041078409627743895;0.00247051964044509;0.006325940174363609;-0.002941480040796307
A;-1.2;-0.02164087745111587;0.0011403580708506666;-0.00848890884245268;0.0032300007137866515;0.002424346790391496;0.001597807291410902;0.004371230194797349;-0.0020733242461972168
A;-1.1;-0.015297333079084652;0.00016019069706985078;-0.0031140382107999187;0.0017854726581898461;0.0006715311133866919;0.0007006734887369248;0.002214129598266723;-0.0011481475590020551
A;-1.0;-0.008197924454224292;-0.0007947793687552718;0.002203324240147353;0.000264408675358041;-0.0011186501713140728;-0.00021437234182641873;-7.611879200908334e-05;-0.00017215091888012068
A;-0.9;-0.0005374094669381435;-0.0017250462029565483;0.0073978623603334626;-0.0013307103727679959;-0.0028983448812525126;-0.0011395580854216547;-0.0024045886571961717;0.0008452813071961884
A;-0.8;0.007697022142906462;-0.0026376248724062634;0.012589144353807313;-0.0029847271468055325;-0.004595058679182529;-0.0020705755442769203;-0.0046945598475591765;0.0018943434592646469
A;-0.7;0.016525581305096182;-0.0035383074437085327;0.017867322449077072;-0.004686306814379648;-0.006164449974022546;-0.0030050687224569828;-0.006906411700368764;0.0029684395401030628
A;-0.6;0.0259553220544948;-0.004437071211054189;0.0234179632596625;-0.0064119116379925956;-0.0074836537222644495;-0.003935721244319623;-0.008898353482255317;0.004051752004771814
A;-0.5;0.03599816832496394;-0.005344238430975423;0.029430031347508212;-0.008137565147602999;-0.008436298521019125;-0.0048559192812618335;-0.010538186935237448;0.005128398850962057
A;-0.4;0.046417857550997255;-0.006254489700262766;0.035684876358839546;-0.009876475562279552;-0.009086197320833378;-0.0057644153122708985;-0.011860156363484364;0.00620003664303681
A;-0.3;0.056903734109809534;-0.0071584961868893515;0.04186363683207173;-0.011650825358580086;-0.009523972290342186;-0.006659655759793992;-0.012913852840080509;0.0072717845226417666
A;-0.2;0.06726577319324001;-0.008051801724645813;0.04775669948384653;-0.013474325287978317;-0.009849188110813145;-0.007544046327174314;-0.013791544936179179;0.008346908126966923
A;-0.1;0.0772864410912888;-0.0089282442314218;0.05310891702892562;-0.015364628854036333;-0.010185696746294326;-0.008421016768750178;-0.014609110438057016;0.009430615570517276
A;0.0;0.08678326288298521;-0.009785740896131045;0.05781075669162128;-0.017326494187801522;-0.010497155228939903;-0.009283295974848116;-0.01528679835383251;0.010519139986870485
A;0.1;0.09564694076216185;-0.010625967168452988;0.06185206905779417;-0.01935657712000971;-0.010704576571860969;-0.010122486145487386;-0.01570958217673102;0.011604969958170841
A;0.2;0.10359685838337285;-0.011442520903857556;0.06500475871523648;-0.021467811913099766;-0.010833812035635049;-0.010933815728474627;-0.0158500261315222;0.012687896264695908
A;0.3;0.11039934764649217;-0.012230448494168655;0.06708998197789384;-0.023670157488902;-0.010883095474198967;-0.011711477208445231;-0.01565743544117204;0.013766560478348566
A;0.4;0.1161177074639621;-0.012996965845609054;0.06819747105295004;-0.02595363757971647;-0.010861272443658976;-0.012458130319677352;-0.015174149293754269;0.014834279319039467
A;0.5;0.12084317032943837;-0.013750387983312962;0.06842379555123834;-0.028306791547454857;-0.010829766188933831;-0.013181506539297061;-0.014516220015872605;0.015884974540380625
A;0.6;0.12485639262655646;-0.014504317377706855;0.06808550162325666;-0.030706769548574542;-0.01065509674478804;-0.01387803067411042;-0.013600486062506079;0.016907117029157703
A;0.7;0.12848160011761145;-0.015274166425577107;0.06753985264575313;-0.033127672121398;-0.01020425511691414;-0.01454533751497955;-0.012355679506471873;0.01788828043659052
A;0.8;0.13160903897357557;-0.01605963630196605;0.06667261291452498;-0.03557098260725944;-0.009629160205729903;-0.015193931246606951;-0.01095538965951981;0.018827762982676077
A;0.9;0.13410912371399242;-0.016858424701846175;0.06534759557993386;-0.03804063678871916;-0.009063213806804526;-0.015832277870266864;-0.009542416448015345;0.0197259209911671
A;1.0;0.13588693519924355;-0.017672557951295076;0.06346016848647462;-0.04053608284225341;-0.008709634463098581;-0.01647556586522292;-0.00836087983073952;0.02058136719498549
A;1.1;0.1368292727269953;-0.018502748311346906;0.06088282240351184;-0.04305824503797684;-0.008781463964574243;-0.017139420820985407;-0.007660878744836452;0.021393643100614312
A;1.2;0.1373257715721028;-0.019361292130236407;0.05803091715358111;-0.045582821543566965;-0.008995705156969791;-0.017810556387448884;-0.007189663382877853;0.022151530262680907
A;1.3;0.13793039650016503;-0.020266064349447888;0.05550112046358002;-0.048076149656337996;-0.008934721715611715;-0.018468489714653202;-0.006567338083854679;0.022839398442421555
A;1.4;0.1389064384344323;-0.021222237307437553;0.053569792081696654;-0.050522338850207404;-0.008368907175739793;-0.019101578365646077;-0.005569278732346916;0.023450517486786282
A;1.5;0.1405707118566628;-0.022235709740130005;0.052567680070515266;-0.052903332420432214;-0.007014206240867793;-0.019695001118936517;-0.003913870600319669;0.02397749467795407
A;1.6;0.14325616247280237;-0.023322809779971365;0.05286942866422173;-0.055194559632566254;-0.004697856127428679;-0.02024318293579519;-0.0014799708249224608;0.024407248682042137
A;1.7;0.14714829250520722;-0.024496322624029787;0.054696197802852176;-0.05737859298929138;-0.00137880273941704;-0.020747979269877703;0.0017246074129779743;0.024729598837106792
A;1.8;0.15277191410281254;-0.02577566833922873;0.05860771606943338;-0.0594232417372087;0.0032779834788385642;-0.021195046753414104;0.005982145387578797;0.02492954042177864
A;1.9;0.1605699469986419;-0.027179000824865795;0.06508470652177589;-0.06129996447250452;0.009539231163259387;-0.021573755199314704;0.011508722002465888;0.02499313522018909
A;2.0;0.17026837139041184;-0.02869453286032808;0.07383356248193262;-0.06302139804985618;0.01720304430372721;-0.021895791481522764;0.018128772697723505;0.02492666762496043
A;2.1;0.18148857421823017;-0.03030205414188103;0.08442713830307191;-0.06460915204768014;0.026026075921137704;-0.022174037908440525;0.025651104457875107;0.024742384006920304
A;2.2;0.19358903830134366;-0.03198598495512073;0.09622888252158379;-0.06609081417318752;0.03549672396411907;-0.02243694626816506;0.03359414130794036;0.024449698100641015
A;2.3;0.2058255502874058;-0.033726443426191466;0.1084908220298102;-0.06749994636526147;0.04503442413411207;-0.02271630488192855;0.041418341371981526;0.024061020238365316
A;2.4;0.2182478064499822;-0.03551266229651873;0.12119828994035053;-0.06884091690003746;0.054721169553793914;-0.023008237877158777;0.04924107682928813;0.023583711178135403
A;2.5;0.23098864008330544;-0.037338649786407885;0.13443070377732624;-0.07011343708777051;0.06468838099691254;-0.023306629432179093;0.05721799427351115;0.023022422522387842
A;2.6;0.24399923920502786;-0.039185623695839666;0.14805175414514338;-0.0713287746078306;0.0749722361720444;-0.023609193572950105;0.06544226789417529;0.022389358795338765
A;2.7;0.25727960970385766;-0.041035803902540025;0.16196985617250892;-0.07249687149438877;0.08564696174533637;-0.02391163004789476;0.07404423634153545;0.02169657329147867
A;2.8;0.27014674758681956;-0.04288370878684589;0.17555566751803742;-0.07364390153584033;0.09611664910407569;-0.024247843067634278;0.08243308907830205;0.020948561131874044
A;2.9;0.2816449066656954;-0.04472386590595434;0.18794618577650368;-0.07480381914945866;0.10554159008885833;-0.024665136126147402;0.08976689763604817;0.02014919735717058
A;3.0;0.2913952356024865;-0.04655791386243102;0.1987987738626833;-0.0759923533628557;0.1135554906520504;-0.025185559290903825;0.09567264648317497;0.019300421363320552
A;3.1;0.29895900962386435;-0.04838940132710867;0.20772662236220096;-0.07722667140382722;0.11972982223101525;-0.02583470961316614;0.09970892632695083;0.01840324451476505
A;3.2;0.3036091603817255;-0.050202787011610184;0.21402918471321897;-0.07853535762349839;0.1234728479273528;-0.026645060147753696;0.10131255045319065;0.01746618146297685
A;3.3;0.3048357861650679;-0.05198051121005065;0.21718464859116526;-0.07994097994120608;0.12439215387000857;-0.02763790694061896;0.10012958989273812;0.016499100599578043
A;3.4;0.3016603438353087;-0.05371003347405612;0.21628539573719419;-0.08148035623020355;0.12166625170556955;-0.02885830429129399;0.09535653557869139;0.0155094442572139
A;3.5;0.2932186214719774;-0.0553779514778352;0.21052170017807548;-0.08318620147417377;0.11457539318739762;-0.030345597214402886;0.08629496047068663;0.014504770622197682
A;3.6;0.2800384820762556;-0.05698642115658714;0.20032883196873996;-0.08504781712491738;0.10354206199903615;-0.03207832708300451;0.07337950736647514;0.013488953316700858
A;3.7;0.26294548471432044;-0.0585453885823064;0.18642178096727502;-0.08704569621564406;0.08921729995073946;-0.03402313184106198;0.05726257663888923;0.012463800127811453
A;3.8;0.24293688199472285;-0.06005143847667149;0.16963450810526215;-0.08915112204076792;0.07244800396870588;-0.03613475786665532;0.03881974594734139;0.011433652215631085
A;3.9;0.22121026624711426;-0.061503274744255876;0.15097982034989688;-0.09132920430204905;0.05424643857833544;-0.038359028579163734;0.01909106001144245;0.010402405824395444
A;4.0;0.19795700296113594;-0.06291252317534735;0.13063447247297688;-0.09358126126849076;0.03471782107391519;-0.04069173590735531;-0.0018288058743216595;0.009371006811301541
A;4.1;0.17318710507831092;-0.06428826349404737;0.10861698995868085;-0.0959131187723754;0.013821514368043353;-0.04313615304112339;-0.023989644825539003;0.008340335374530383
A;4.2;0.1473626820874756;-0.06564804135278202;0.0853475093966578;-0.09831952356898732;-0.008125924632675918;-0.04567696495145057;-0.047091794094498596;0.007310801703260594
A;4.3;0.12087898675021869;-0.06701003884285228;0.06119353095392732;-0.10079700169581862;-0.030865752603027374;-0.04830183086868445;-0.07089579403313628;0.006282287293062794
A;4.4;0.09459274115924288;-0.06836094048725272;0.036865136508315466;-0.1033148435856539;-0.05363309456362586;-0.05096802134088385;-0.09459539014360985;0.005258461148557103
A;4.5;0.06964051263943105;-0.06967938826361042;0.013294214898229129;-0.10583105931504999;-0.07539638694125017;-0.0536176589920494;-0.1170993061157084;0.00424468171957848
A;4.6;0.046426962144527906;-0.07095367781791673;-0.009182776676632365;-0.10832833943581921;-0.09577661844194196;-0.05622845192218229;-0.1379970152503951;0.0032428828122910147
A;4.7;0.025383347877969697;-0.07216885003609619;-0.03020924005682435;-0.11078667236912754;-0.11435883804732683;-0.058775615188903174;-0.15683643064831543;0.002254991170271836
A;4.8;0.007599219939786295;-0.07331836891312982;-0.048881553028121694;-0.11317399455047283;-0.130205464602426;-0.061207652974875515;-0.17264478751026502;0.0012864340233011973
A;4.9;-0.006023436835473461;-0.07440325276123971;-0.06444505992131155;-0.11546761001621597;-0.14256452782125706;-0.06348369672666188;-0.18465014819770253;0.0003418975598279417
A;5.0;-0.014179341071324458;-0.07540917589089347;-0.0758116635988264;-0.11762263979011589;-0.15028117032329646;-0.06553897729716418;-0.19164797311393933;-0.0005740617733405173
A;5.1;-0.015671656452859395;-0.07632499801731285;-0.08198549542315714;-0.11959992399265573;-0.152303789519582;-0.0673145117018521;-0.19254319444320167;-0.0014566987778845686
A;5.2;-0.01104687615816502;-0.07716304093967175;-0.0833934152221838;-0.12142079101466852;-0.1491375124745069;-0.06883676495242419;-0.18786396633549174;-0.0023084810396643007
A;5.3;-0.0012988257346382426;-0.0779383150929931;-0.08081876616075157;-0.12311777591263873;-0.1416696177702228;-0.07015220434908187;-0.17853381732692952;-0.0031353942019407555
A;5.4;0.01260869864307601;-0.07867671857709801;-0.07505492833842631;-0.12473743766523526;-0.1308129566801064;-0.0713109136123844;-0.16551314067292822;-0.003937520917611792
A;5.5;0.02946347022805007;-0.07940765144642548;-0.06709697769513756;-0.12633486709269182;-0.1177020467040073;-0.072375074573932;-0.1499940030862703;-0.004716071795568766
A;5.6;0.04892307336682933;-0.08013200758118266;-0.057172499918858755;-0.12791057416895057;-0.10260770711420619;-0.07335478121570915;-0.13225408618240309;-0.0054787492566745755
A;5.7;0.07087597879313812;-0.08084788555232159;-0.04532444299509475;-0.1294577372322827;-0.08559410371407239;-0.07424847241082766;-0.11235573785548603;-0.006232021339386051
A;5.8;0.09459799342814001;-0.08155884406193437;-0.032081528806505055;-0.13098668352399656;-0.06726300810428043;-0.07508432267078291;-0.09092049162193838;-0.00698633061261944
A;5.9;0.11942378418800814;-0.08226687014611933;-0.017921452950953487;-0.13250423664319744;-0.048157279655150376;-0.07588669177190965;-0.06850813065074313;-0.0077526283955187125
A;6.0;0.14467763216415364;-0.0829991172200586;-0.0034345441056018444;-0.13405600295950038;-0.028950850816478635;-0.07669240364392493;-0.04583382369151323;-0.008525847678555465
A;6.1;0.16951048804743607;-0.08379224399960883;0.0106185066294886;-0.13570497158337158;-0.010510928097094308;-0.07755109244305736;-0.023820052602671282;-0.009296621300814323
A;6.2;0.19369787119749127;-0.08466409409153286;0.02403234095600304;-0.1374740693413221;0.006918789968686667;-0.07847342839376914;-0.002732071058291652;-0.010061885318993546
A;6.3;0.21703426925092018;-0.08563451900926644;0.03660553823437507;-0.1393892915918089;0.023100788949253825;-0.07947012008271592;0.01716946523944962;-0.010816826579487682
A;6.4;0.23849990267352084;-0.08673077382215588;0.0474890918460007;-0.1415023593803486;0.03706405141224067;-0.0805957040884735;0.034860759007765196;-0.011559296456484347
A;6.5;0.2571599714256383;-0.0879726193590109;0.0559330615885365;-0.14385156141371613;0.047945911073881575;-0.08189731433733272;0.049434801284727214;-0.012291393707103637
A;6.6;0.271872937460234;-0.08939484985811497;0.06095139914492265;-0.14650400710360767;0.05463558909179156;-0.08343836479035183;0.05971823314269464;-0.013005973898437162
A;6.7;0.28156741404810326;-0.09102808021333253;0.06163063164552707;-0.14951931292255782;0.056098573378498884;-0.08527783712822234;0.06461871623869975;-0.013697577855335652
A;6.8;0.2866579734099588;-0.09285934816699815;0.058388057562501317;-0.15286070312879385;0.052783194915825504;-0.08738187290455635;0.06460495387247356;-0.014377316459919243
A;6.9;0.28798163676680133;-0.09486588035117016;0.051997748904060614;-0.1564693521535956;0.045547199609892175;-0.08969093099889314;0.06057565137913379;-0.01505827571121543
A;7.0;0.2862136814589178;-0.09701781372404028;0.04315856686441233;-0.1602782870365509;0.03512447765725213;-0.09215521993049336;0.05330376066712361;-0.01575878638569783
A;7.1;0.282236066749336;-0.09927891275679457;0.03275480384188523;-0.1642067556744129;0.022456710629530363;-0.09471194240155967;0.043780937029758604;-0.016499632823840926
A;7.2;0.2763878108697604;-0.10164338176780952;0.021071363695625678;-0.16823689698937994;0.007887690490719024;-0.0973337606969551;0.03236472318275574;-0.017282648527274347
A;7.3;0.26880895878732325;-0.10410962568479576;0.008215157920168359;-0.17236313266765801;-0.008438125987400014;-0.10000668693212766;0.019203647192712836;-0.01810667553992218
A;7.4;0.2601817125531163;-0.10666549087190447;-0.005234283563384068;-0.17654898922657924;-0.02583809935523007;-0.10268109333583197;0.005009240546579363;-0.01897744965613235
A;7.5;0.2511467260527791;-0.10929971380840442;-0.018742408702113522;-0.1807619006198511;-0.04367419304881892;-0.10531049338820075;-0.00955340062403387;-0.019898861513418353
A;7.6;0.2420754795367266;-0.11198095279407916;-0.03185446334804176;-0.18494531883095533;-0.061505683268752165;-0.10786791949639785;-0.024015931255094713;-0.020885822670805965
A;7.7;0.23339961075005;-0.11466988126573163;-0.044011036135897186;-0.18902659863968285;-0.07880764363632053;-0.11032233331529717;-0.03782011242708272;-0.021959857731365773
A;7.8;0.2251460724590988;-0.11734415598239423;-0.05510038678324758;-0.1929769958405405;-0.09549658949422124;-0.1126700884140881;-0.050870663258237414;-0.0231258954832807
A;7.9;0.21729849948080648;-0.1199793237606741;-0.0650364037106046;-0.19676681278199926;-0.11152654297751852;-0.11491113535375952;-0.06311042502439612;-0.024389222357603657
A;8.0;0.21053808743617886;-0.12254570950370436;-0.07310165469559848;-0.2003255713553891;-0.12614646273344476;-0.11699513026108121;-0.07375282939937478;-0.02577229895403299
A;8.1;0.20553878856630625;-0.12502082360950162;-0.07862774134952666;-0.20359356167455012;-0.13862867969597303;-0.11887119866963758;-0.08203854010835876;-0.027293963265570653
A;8.2;0.20301801886990667;-0.12736441124685882;-0.08082983033400382;-0.20648849685106185;-0.14817445029930454;-0.12049024524437613;-0.08712711542069584;-0.028978962668391617
A;8.3;0.20365951331655552;-0.12954166601408268;-0.07897286249268554;-0.20893542185422298;-0.15402445076079374;-0.12180425606510248;-0.08822200487730925;-0.0308510593504856
A;8.4;0.20717384229395108;-0.13155864516481763;-0.07339079455839759;-0.21096246854805933;-0.15647293710875232;-0.12282898833690936;-0.08563045783800405;-0.03289508942808972
A;8.5;0.2129702836922771;-0.13342730058440644;-0.06473276724744981;-0.21262497920548107;-0.15613777335313017;-0.12360317451547331;-0.07999556059593083;-0.03508353114142615
A;8.6;0.22064549827889657;-0.13517890411109867;-0.05350881397490337;-0.21397965829498133;-0.15344675019254694;-0.12414311826748836;-0.07177736942087698;-0.037399887218040107
A;8.7;0.22966271897590218;-0.13685063025217836;-0.04037783785367477;-0.21509774587883967;-0.14897299018769772;-0.12447395024976338;-0.061588315900461765;-0.03982209691353056
A;8.8;0.2397280784159328;-0.13843030025551784;-0.02565401303447601;-0.21599942915510262;-0.14301932590634792;-0.12462315883505681;-0.049736419988235525;-0.04233194349077429
A;8.9;0.25068103365367556;-0.1399029361246047;-0.00951209881146653;-0.21669363334600877;-0.135746617879704;-0.1246094514139724;-0.03638366364569379;-0.04491771862705285
A;9.0;0.26198451925275457;-0.14125971406046567;0.00748770689497924;-0.21721853338494768;-0.127714629953104;-0.12447756424168155;-0.022101729035298945;-0.04754988427735185
A;9.1;0.27312629783191333;-0.14248984300292733;0.024809976905651787;-0.21761054126277557;-0.1194593729331146;-0.124272246112767;-0.007437715927647304;-0.05019972972295328
A;9.2;0.283939537809518;-0.1436368902358467;0.04215913189525278;-0.2179187290789164;-0.11116241678092464;-0.12398912705112508;0.007389144314826623;-0.05286734307510521
A;9.3;0.29426381377333044;-0.1447625425472605;0.05921732672345481;-0.21820146785781347;-0.10299832351650906;-0.12361439944119645;0.022156928647842022;-0.0555567156641672
A;9.4;0.3041506821259894;-0.1458952745295914;0.0759149537517434;-0.2184890287905512;-0.09492869260348513;-0.12313753084126411;0.036876766124184;-0.058274629165779857
A;9.5;0.31369821636041095;-0.14706971530270074;0.0922188126494774;-0.2188123351527027;-0.08686759179510162;-0.12254229600087285;0.05160433019278976;-0.061031831228145705
A;9.6;0.3225014404638813;-0.14832348104147286;0.1076318536848575;-0.21922308340644037;-0.0792331720187498;-0.121839839079259;0.06588807363869975;-0.06381391441832562
A;9.7;0.3301214297263346;-0.14967755730916465;0.12165143747802531;-0.2197646351475928;-0.07247867927468121;-0.12105116153907503;0.07925095026063111;-0.06660027522653778
A;9.8;0.33617605182913124;-0.15119313053140537;0.13377177475851898;-0.2205009007308627;-0.0670011458155173;-0.12017705220242547;0.09124815056724778;-0.06938527973805897
A;9.9;0.3402863457546754;-0.1529219369333692;0.14351362078694496;-0.2214868694656298;-0.0631900016616207;-0.11922080840666105;0.10144996703618858;-0.07216070668414076
A;10.0;0.34259423583592863;-0.15483196954571454;0.15099062903514682;-0.22271175550322653;-0.06091936300362377;-0.1181953447734152;0.1099917420909442;-0.07492168808507671
A;10.1;0.34343055467613937;-0.15688029831141215;0.15650767963976175;-0.22415198567710437;-0.059877544926745685;-0.11710972866505998;0.11720058253797205;-0.07767138248061478
A;10.2;0.3429235383506928;-0.15899143852426612;0.16027264203589908;-0.22575672444134298;-0.05992853713567925;-0.11598835314648426;0.12325701913184517;-0.0803910667177199
A;10.3;0.3412723558732562;-0.16107790953556034;0.16257531077208132;-0.22746582941764348;-0.060867074967958956;-0.1148574480324811;0.12841766099755958;-0.0830622349169996
A;10.4;0.338691962466811;-0.16315141086441542;0.1635653828294661;-0.22928621591465959;-0.06249374033995991;-0.11371028402917105;0.13286546630856044;-0.08570201139360378
A;10.5;0.33531801952065443;-0.16523429895197417;0.1633292368305499;-0.23122659475139784;-0.06467764551806354;-0.11253693515550367;0.1367120845466463;-0.08832739579557902
A;10.6;0.3315252548470511;-0.16732506601920605;0.16214324196331908;-0.23329232511033027;-0.06708119655513656;-0.11133357703780256;0.14027906123686407;-0.09095830072969058
A;10.7;0.32767891518980186;-0.16942923813854271;0.16028080430406533;-0.2354892540156106;-0.06937149917454732;-0.11009304608576187;0.14388070713871137;-0.09361752448358196
A;10.8;0.3237135952413581;-0.17146820426589748;0.15788223402477541;-0.23773897262470012;-0.07155829710109174;-0.10883715661895366;0.147570241964317;-0.09627722290700902
A;10.9;0.3194978070774521;-0.17332765874794198;0.15508223603514626;-0.23994028911727927;-0.07370863672504058;-0.1076016043978072;0.15136810284724866;-0.09889208630807289
A;11.0;0.31486579090751654;-0.17497113441276646;0.15193459536070453;-0.24202700361025808;-0.075911574183543;-0.10639231634213431;0.1552303375176347;-0.1014478652522115
A;11.1;0.30960006670391493;-0.17635494447596756;0.14848070492210397;-0.24392264234084138;-0.07829537502632533;-0.10521714431759577;0.15908209462341993;-0.10392553266450655
A;11.2;0.3038324207969101;-0.17738694955268564;0.14491292013267199;-0.24557723101662798;-0.08074518046641188;-0.10411112310018567;0.16308318803842603;-0.10629526445624116
A;11.3;0.2977769444071736;-0.1780016824805486;0.14142375720804523;-0.24696707531873408;-0.08308883312177429;-0.10310185014350637;0.16742594599360316;-0.10854044151396103
A;11.4;0.2914745714163942;-0.17807647701962992;0.13824198812009758;-0.24800319498952383;-0.08526254272595679;-0.10222998829577534;0.17224950924556204;-0.11061749001216015
A;11.5;0.2849996854000896;-0.1775008774598099;0.13556925051141278;-0.2486155402582444;-0.08719129903741774;-0.10153560394350336;0.1776885158187671;-0.11248705335992071
A;11.6;0.2783389915253469;-0.17635367233703647;0.1333917059552725;-0.24882387119195926;-0.08886453613921219;-0.10098849771002172;0.18370971643676448;-0.11418578026713533
A;11.7;0.2713847450193505;-0.17475723835249468;0.1316585617031638;-0.24864795662815986;-0.09032389703166643;-0.1005368906227293;0.1902152605653047;-0.1157673361560061
A;11.8;0.26429283268331005;-0.17283812166021484;0.13022053444222514;-0.24819846939164858;-0.09150364569978109;-0.10015306029086446;0.1971567512206267;-0.11728377055741568
A;11.9;0.2572107908733603;-0.1707498678047763;0.12889984039926805;-0.24759931477027042;-0.09234473494495177;-0.09979923088122433;0.20446387111905295;-0.11879810353994102
A;12.0;0.24994409334481915;-0.16853239708690282;0.12778150134717503;-0.24679111373170226;-0.09291630789766714;-0.09944344130257932;0.21207491338476103;-0.1203299987036317
A;12.1;0.24232680891404357;-0.1661967898660066;0.12695927514292205;-0.24571159331272252;-0.09328052469621895;-0.09906816903812121;0.2199422590235205;-0.12188540608335607
A;12.2;0.2340892116961708;-0.16382712764793794;0.12650722162994033;-0.2442979699697494;-0.09353726155688946;-0.09861676176727485;0.22796741034690626;-0.12350473275878926
A;12.3;0.22495081552271223;-0.16149735822354572;0.12651015413918287;-0.24247962657960276;-0.09379273472354654;-0.09803577819120513;0.23605100683218438;-0.1252233239576519
A;12.4;0.2152521769589235;-0.15929079596624618;0.1267238725786619;-0.24042758659085983;-0.09394126321378238;-0.09733903727157589;0.24415183553669806;-0.1270658936770186
A;12.5;0.20550146961197768;-0.15731772955555456;0.12680094950248844;-0.23838796027164832;-0.09381670215343973;-0.09654774603441396;0.2522393163398302;-0.12906648659126496
A;12.6;0.1959908336024796;-0.15559743827924777;0.12658548256619362;-0.23648028531746412;-0.09332988418325172;-0.09569488818041627;0.2602949162437369;-0.1312207279120603
A;12.7;0.18708135075952725;-0.15414566884490633;0.12588360593659065;-0.23485019312692224;-0.09237124034330435;-0.09482288299333952;0.26830444709624146;-0.13352050758772016
A;12.8;0.17898762800806622;-0.1531006500976666;0.12450905415701374;-0.23363496187067234;-0.09086148459028465;-0.09390266962399885;0.2762216257548449;-0.13602413354839982
A;12.9;0.17176966524156967;-0.15258931424691013;0.12238147484431838;-0.23290267790429642;-0.08876793674350836;-0.09288992094903037;0.28399974737565437;-0.1387896233917516
A;13.0;0.16583254634707245;-0.1527571932514924;0.11916504859826826;-0.23287953682942408;-0.08596681302509523;-0.09177791628549237;0.29157804542277965;-0.14187048836417482
A;13.1;0.16150873919941944;-0.15374449847389826;0.11458774044279618;-0.23375473793107027;-0.08235048197143868;-0.09055031498462185;0.29890670897893834;-0.1453219147624143
A;13.2;0.15860042668120755;-0.15547896724667254;0.1088757433232912;-0.23540199059505973;-0.07798147179503445;-0.0892129944170783;0.3059846766527343;-0.14911167252698654
A;13.3;0.15686407768020594;-0.1578186454422319;0.10231002106472253;-0.23765244290201348;-0.07295329908614434;-0.08779740170129635;0.3128109376077255;-0.15317229146018363
A;13.4;0.15576987558255695;-0.16068217430897214;0.09540986880635138;-0.2402138019054334;-0.0673940567878617;-0.0862587642985364;0.3194400814998719;-0.15748796406419352
A;13.5;0.15471000759557363;-0.16395820014047757;0.08876595849448776;-0.24274822932604145;-0.061457275372919895;-0.0845549187029988;0.3259334531428397;-0.1620305977493448
A;13.6;0.15381236057599956;-0.16755362593307233;0.08231264179781039;-0.24528283027529163;-0.05515906801155879;-0.08274714028762453;0.3322373234708049;-0.16673959651182635
A;13.7;0.15326871212672444;-0.17140778033258997;0.07592501977027499;-0.24788283536162226;-0.048492740710035065;-0.08088783851344061;0.33829848778609595;-0.17157040667985335
A;13.8;0.15314296065559319;-0.1753684060856635;0.06960271254080741;-0.2505302524085904;-0.041505020113206115;-0.07906071785388669;0.3440610989026176;-0.176431064973956
A;13.9;0.15354513504333056;-0.17928656245442376;0.06330062950531712;-0.25323066813854567;-0.03423519695337873;-0.07735332799729733;0.3494632887119682;-0.18122959415620699
A;14.0;0.15388766796563935;-0.18315759048877034;0.05759015482940022;-0.25567576080843235;-0.02679297940442993;-0.07566218195850816;0.3546086576652723;-0.18600379513204857
A;14.1;0.1533142829962344;-0.18699757136753092;0.053285155143970364;-0.25742960999684783;-0.01932543467846415;-0.07383217267027575;0.3596534176495787;-0.1908190491844728
A;14.2;0.15150734022940604;-0.19083583277992666;0.05069184812815575;-0.2583274364653736;-0.01189357508084754;-0.0717789495657275;0.3646598900155773;-0.195719093382829
A;14.3;0.14808641844409998;-0.19471997810727082;0.05016958631104984;-0.2581775102466368;-0.0045635285400393855;-0.06939726218696585;0.36970848391547406;-0.20076301412669117
A;14.4;0.14242040779697795;-0.1985791866035207;0.05233568326053373;-0.25664131763027687;0.0025296519048758626;-0.06662428710355783;0.3748847501958039;-0.20594518176123877
A;14.5;0.13408490821496066;-0.20231415520113138;0.05761581539901606;-0.2534791226765343;0.00927389952522617;-0.06344700397667857;0.38022494061134005;-0.21122914487081523
A;14.6;0.12221335532166044;-0.20588769560673903;0.0668381712719075;-0.2482406375889914;0.015506261033841895;-0.059742322290286864;0.3858780993129045;-0.2166471065196074
A;14.7;0.10603686209615226;-0.20925251637348907;0.0807377942632268;-0.24052505151079817;0.021076201124436977;-0.055411746305813026;0.39196772834984195;-0.22221700223617624
A;14.8;0.08608084007637906;-0.21238473377719735;0.09881848365404089;-0.23058515926859258;0.026030878521723366;-0.05053346188155139;0.39837577335908136;-0.22789787628479452
A;14.9;0.06315111741318269;-0.21529311895712233;0.12031017932264465;-0.21881923088699207;0.0304668939785131;-0.04520237019567652;0.40494845197414264;-0.23365657303287968
A;15.0;0.03816930802838492;-0.21790190081868488;0.144347039150599;-0.205678945627918;0.034481722513529434;-0.03960736142300547;0.4114549340962306;-0.23938475619119792
A;15.1;0.012242373141212681;-0.22013773211166132;0.16988538764196193;-0.19171000687236006;0.03820073188149564;-0.03396338888121875;0.4176299690756551;-0.24496498982513515
A;15.2;-0.014408494401346061;-0.2220516799640464;0.1966946070271396;-0.17702376221251193;0.04164529281235829;-0.028244760351464393;0.42346671195037366;-0.2504304837911029
A;15.3;-0.041744377680792866;-0.22369166129940687;0.22471547735528485;-0.1616422991770401;0.04481133271441351;-0.02240548889808558;0.4289913436470254;-0.25582048368132426
A;15.4;-0.06927514332787332;-0.22512690125684465;0.25345614147176043;-0.14581285306884428;0.04776079815696832;-0.016440286057719078;0.4341571055231874;-0.2611687604678128
A;15.5;-0.09657673339667383;-0.22643508484618025;0.2824842097904865;-0.12975172714176253;0.05054950981195461;-0.010329257894403199;0.43893647536316216;-0.26651849893554136
A;15.6;-0.12293329465950364;-0.2275028363410989;0.311125842985815;-0.11381701622897733;0.0532463673775041;-0.004283561275391534;0.44310922682083564;-0.2717331708783881
A;15.7;-0.14739663198963981;-0.2281574360343015;0.33849726983433825;-0.09847998557870685;0.05594182295533301;0.0013981763426613725;0.44636818344129914;-0.2766147433230266
A;15.8;-0.1696781019837008;-0.22832160230927911;0.3643198386613715;-0.08389096947243413;0.05865680058810696;0.006591718623370824;0.44860560578697495;-0.2810770565675682
A;15.9;-0.18948433016094945;-0.22790041477611922;0.3883132712211035;-0.07020380603410725;0.06141185238077185;0.011152132975684736;0.44970051757214335;-0.28501730169608663
A;16.0;-0.20582150159324542;-0.2267953800724083;0.4095340678241879;-0.05791019752333337;0.06430839438635871;0.014859978820595643;0.44939342838331164;-0.28830437340552706
A;16.1;-0.21783204400687417;-0.2249567407262365;0.42715762936928847;-0.04743449969254687;0.06743596015909148;0.017564873656857216;0.44748864241468844;-0.2908573600711737
A;16.2;-0.22438605906358333;-0.22223878536206243;0.44012158005566526;-0.039341396345655255;0.07091448373709852;0.01896960815685489;0.4436641702435402;-0.2924909812920067
A;16.3;-0.224428740946383;-0.21851510561534582;0.4474312242802716;-0.034156761917125245;0.07485428200153521;0.018811220711755894;0.43762935386533286;-0.2930428968440548
A;16.4;-0.21845539747728715;-0.21388640516504154;0.44951345401481824;-0.03164807167918848;0.07920143484541953;0.017245642894705426;0.4295680749670172;-0.2926201009282696
A;16.5;-0.20740433634401434;-0.20849987735470776;0.4472069736744775;-0.031371423677152066;0.08385897922397234;0.014518035416624997;0.41978452312579506;-0.2913843595880614
A;16.6;-0.19202609197303033;-0.20253140207473308;0.4411678660217362;-0.03295584363411219;0.08873340653364536;0.010924198921879125;0.40857798383804855;-0.28953572867864175
A;16.7;-0.1732914180202858;-0.19619057673109808;0.4322534920581509;-0.035922973505978284;0.09370907840865783;0.006820403441508915;0.3963164042124667;-0.28731363333610993
A;16.8;-0.15165586333260883;-0.18952351862203187;0.4208733767827715;-0.04007850405866442;0.0987516416319032;0.0022624180476142897;0.3831306687276079;-0.28475437934533154
A;16.9;-0.12736075765301713;-0.1825440722739451;0.4072440985648029;-0.04533175271173917;0.10384736444287412;-0.002749328722481792;0.3690874769458983;-0.2818575245204009
A;17.0;-0.10123155568961018;-0.17534593422701938;0.39210899831091783;-0.051311972775686776;0.10893137896839278;-0.008076855153143825;0.3544222749881154;-0.27871362740544114
A;17.1;-0.07405578394970647;-0.1680115954929544;0.37618092298424166;-0.057668979852921964;0.11394411209301936;-0.013602113558711437;0.33935481486794217;-0.2753992945594774
A;17.2;-0.04622010274847277;-0.1606811572308935;0.3597897102520884;-0.06419624064748675;0.11881629851570708;-0.019075977588961734;0.32409849482698405;-0.27208214722796953
A;17.3;-0.01814064384635472;-0.1535379049230503;0.34327936410500914;-0.07065724912778482;0.12346396088714329;-0.024167025994696445;0.3089113778052912;-0.2689870936955234
A;17.4;0.010121224344080915;-0.14664930259563924;0.32670168237201835;-0.0770148801201671;0.12785737944070874;-0.028760267948229057;0.29388799433450963;-0.2661905727799301
A;17.5;0.03856505673365973;-0.14008429559024016;0.3100527309769445;-0.08325615617312643;0.13196837913051596;-0.03273362298953941;0.2791150899020902;-0.2637738275794046
A;17.6;0.06645293861113544;-0.1340339725646036;0.2939576791816547;-0.08901027986459198;0.13571355204699387;-0.035764990941270725;0.26490121661661625;-0.26195913636436075
A;17.7;0.09301221283569205;-0.12866598426237452;0.27907726697977786;-0.09390416934713475;0.13902172536907997;-0.03758576497168242;0.25153600976191903;-0.26093336037959247
A;17.8;0.11753216841686687;-0.12419424409559277;0.2660132904415491;-0.0975619991542871;0.14179606860944105;-0.03781269387929598;0.23934864690474988;-0.2609577442252107
A;17.9;0.13931600659831211;-0.12082043792765162;0.2553512555837436;-0.09962152954435854;0.14395189492282157;-0.03609325194308077;0.2286505911027863;-0.2622750139793979
A;18.0;0.1584841947534752;-0.11847812301198424;0.24700654562619828;-0.10018612850043951;0.14553195998214719;-0.03258796863780056;0.21937435873176092;-0.2647770045469642
A;18.1;0.17545744138985953;-0.11702249462708458;0.24065009588135933;-0.09951499373826866;0.1466115361467537;-0.02759122052538565;0.2113355110607067;-0.26826103912559063
A;18.2;0.19037656736134245;-0.11634612974058989;0.23615392291494874;-0.09775118261745153;0.14728210794300622;-0.02138070237123202;0.2044055504150819;-0.27255130797131777
A;18.3;0.20349364272118287;-0.11630343343051308;0.23329944453946005;-0.0951015575914429;0.14765355870546415;-0.014307021783297458;0.19840259577735786;-0.2774221081396888
A;18.4;0.21509075327148786;-0.11682748228568052;0.23187464460050045;-0.0917153336038039;0.1477563527375949;-0.006477546422523517;0.19324102469348148;-0.2827928548155132
A;18.5;0.2253510245827144;-0.11788769300751767;0.2317383201587102;-0.08768308064705543;0.14761152658579846;0.002068592716208073;0.18887947253862514;-0.2886322140913684
A;18.6;0.23476184447687665;-0.11935301610042615;0.2325271707469181;-0.08326668569226836;0.14726645493494317;0.011110971539817882;0.1851494213302587;-0.294776772826987
A;18.7;0.24381673620326794;-0.12109732948850471;0.23386951018026192;-0.07872483707306355;0.14676739069504663;0.020445639920511738;0.1818845528451778;-0.30107429576660927
A;18.8;0.2524535907754242;-0.12307558203106517;0.23575081116995378;-0.07409343601549878;0.1462210301168696;0.02988460740816734;0.17901672005690195;-0.30742687131440327
A;18.9;0.26049494757750935;-0.12524256422465463;0.2382351008055501;-0.06937635529124986;0.14575472505332598;0.03919528687878149;0.1764826043531471;-0.3137162103027986
A;19.0;0.26781703687375646;-0.12760216848328199;0.2413483324342982;-0.0645449376460201;0.14545286424885617;0.048317767477362494;0.17426551386564704;-0.3199302693575845
A;19.1;0.2742405530436258;-0.13016881116693035;0.24514786354148477;-0.05954592428551564;0.14540722167243558;0.05719969309717143;0.17235895712853733;-0.3260671572303053
A;19.2;0.2798380885814922;-0.1328387160351312;0.24956810570556964;-0.05449797338756124;0.14570751615874045;0.06555197748509656;0.17064834008195184;-0.3319439518660108
A;19.3;0.28478339539662656;-0.13549808831323062;0.25448908835049444;-0.04955271122779692;0.14641999885020596;0.07310546070277368;0.1690109404247604;-0.3373793343261937
A;19.4;0.2890845943954048;-0.13804762972093698;0.25985124288455363;-0.044810871517250384;0.14767159872943836;0.07954118806219768;0.16732145528022713;-0.34218525480592277
A;19.5;0.29276346353108806;-0.1403887430825943;0.2656054477829404;-0.04037275956481601;0.14956969229352168;0.08455895513505318;0.16546515686382257;-0.3461788605889744
A;19.6;0.2959549679403519;-0.14253580575038427;0.2716371148378034;-0.03625524371747968;0.1521118543957698;0.08826787503303102;0.16344039605434624;-0.34942663333044877
A;19.7;0.29880136776085564;-0.14454481866025226;0.2777962185858822;-0.03243975422446432;0.15528823731606778;0.09089587017919598;0.1612725767634693;-0.35207762053891756
A;19.8;0.30147203797593747;-0.14643071927129725;0.2840504753246389;-0.028937544743243393;0.15900340647521816;0.09262106596065678;0.15901517061054626;-0.35420986193705417
A;19.9;0.3041579099479197;-0.14822299853189413;0.29035475166279046;-0.025750189440499227;0.16314525876882868;0.09367837525895162;0.15673554745242058;-0.355935498534679
A;20.0;0.30695283734055145;-0.14995467879157154;0.2965139042542404;-0.02287808838636085;0.16778677909081807;0.09416342570081326;0.15440387891514007;-0.35734101674239405
A;20.1;0.30991783629010605;-0.1516445348102522;0.3023675562187851;-0.020325782077732057;0.17300541059229246;0.09411810211562255;0.15198655047751686;-0.358476425105815
A;20.2;0.31318578501842964;-0.15335347006911704;0.30766396364569726;-0.01807765566584507;0.17886935666929205;0.09373192827952792;0.14945823461702368;-0.3594953064289239
A;20.3;0.31687928281141176;-0.15514227533435765;0.31214946219834516;-0.016116819927335158;0.18545420315913574;0.09318433903412426;0.14679165358965918;-0.3605468300479284
A;20.4;0.3210729370526444;-0.1569953722872075;0.31597219671259413;-0.014445163005278872;0.1926019352450865;0.09257182290052945;0.14408132460506629;-0.3616280060368986
A;20.5;0.3258557315825694;-0.15888175039973795;0.3193755324371619;-0.013069239130134136;0.20007817385558724;0.092002862809208;0.14145520360722585;-0.3627155130654831
A;20.6;0.3312617842225407;-0.16077349879026315;0.3224804641307806;-0.012001563749294952;0.2077801836355455;0.09148485089669656;0.13898095182073433;-0.3637622071373059
A;20.7;0.33731041480228896;-0.16263471736334623;0.32545985215537865;-0.011253915542354775;0.2155782851603263;0.0910128195219908;0.13674145939467586;-0.3647022065470171
A;20.8;0.34416829562456286;-0.16446877103111213;0.3283315488026428;-0.010835042019913033;0.22333437862518224;0.0907630361651588;0.13478763522832438;-0.36560353211221397
A;20.9;0.352022160459704;-0.1662917228455978;0.33099816750747646;-0.010758100613330157;0.23097729533683875;0.09091197806204043;0.13312792826047826;-0.36656099882976
A;21.0;0.360983987910263;-0.1680986462194074;0.33364681000696184;-0.011011673401400301;0.2382746140919707;0.09164484866830058;0.13187826454343288;-0.3676150923971644
A;21.1;0.37118601863161693;-0.16988602840693723;0.3363999122421797;-0.011593319594686236;0.24502832247187456;0.09313721780971917;0.13112357917410833;-0.3688144527024342
A;21.2;0.3826780686397093;-0.17165434604490315;0.3390258697700901;-0.012534321418335104;0.25137410367964463;0.0953210838065317;0.13078696453674965;-0.37015283828380774
A;21.3;0.39543047880156834;-0.173402004916559;0.341304529860758;-0.013857959890724914;0.2574929983868124;0.09805364853457199;0.13078897692709823;-0.3715864937407396
A;21.4;0.40961166364885315;-0.1751336306345479;0.34269219584351784;-0.01564410373256564;0.2636793197135461;0.10123163307912542;0.13090480247330838;-0.37315162721431605
A;21.5;0.425376655427268;-0.17685518182159043;0.34259498369592745;-0.0179763485700688;0.270273928915298;0.10471862598616077;0.13088649386826035;-0.3748779834208946
A;21.6;0.44258708058192475;-0.17856357924966026;0.3411518781840428;-0.020820075839043994;0.27724257063519886;0.10844780972702317;0.1307983272191624;-0.3767034971751464
A;21.7;0.46111967484834615;-0.18025395344813866;0.33854659428857925;-0.024137732250728128;0.2845038934690223;0.11238334191734722;0.1307152632811075;-0.37857595350741846
A;21.8;0.4807793763207062;-0.18192455075910985;0.33489598495018136;-0.027890507191548508;0.29207755101004196;0.11640206535605557;0.13070084614677313;-0.38040643627015314
A;21.9;0.5013482283466644;-0.18357344268011566;0.3303711942577001;-0.03202990388048477;0.29995409817954055;0.1203863967887866;0.13083569442711251;-0.382102317641996
A;22.0;0.523110960476906;-0.18519991677793435;0.3243371998189222;-0.03666327763095012;0.30841130473504563;0.12427976698646681;0.13081568858637915;-0.3837490438222293
A;22.1;0.5465018612038968;-0.18680496878899788;0.3158642035955994;-0.04195058375504157;0.3178555600821227;0.12802290550697037;0.13021075565394824;-0.3854797894001134
A;22.2;0.5717047745038908;-0.18838855717351066;0.3046074609216438;-0.04794873312370118;0.32839889850649584;0.13161194128584164;0.12881951445856288;-0.3873684136543609
A;22.3;0.5989488805703083;-0.18995054808807765;0.2901542946673237;-0.0547280176595093;0.3401736472250825;0.1350513973714751;0.1264027489145274;-0.38950743237421825
A;22.4;0.6284516918358847;-0.191495423963433;0.2718493682059977;-0.062387436377527195;0.3535167758787203;0.13824022248324752;0.12269419808381876;-0.3919486296480077
A;22.5;0.6602927002644403;-0.19302938348686105;0.24927488370213347;-0.07097886418109667;0.3686711351386691;0.14107626334807755;0.11754075785972873;-0.39470150211067434
A;22.6;0.6948193738707626;-0.19455434376038205;0.2215372628389476;-0.0806477353011088;0.38606774273063493;0.14345371541089236;0.11054425163341719;-0.3978642507984933
A;22.7;0.7323170120450513;-0.19607426452635934;0.1878505889998241;-0.09151709474155556;0.4060937017038597;0.14527334409152992;0.10136593496895863;-0.40151711378640975
A;22.8;0.7724590813578924;-0.197595632727392;0.1488401555431862;-0.10345602022505673;0.42843343700318925;0.14657388584234354;0.0902295355593914;-0.40559946134616
A;22.9;0.8148010372165384;-0.1991227359971468;0.10545061151947976;-0.11627999862801097;0.4525945026591387;0.14743538158589686;0.07745537008566217;-0.4100341313746565
A;23.0;0.8587731640953926;-0.20067119252694;0.058719848454317436;-0.12977144525706663;0.4781007881409458;0.14792139775865287;0.06352079925491871;-0.414681885862624
A;23.1;0.9037134007923271;-0.20225720486578602;0.009892033455614069;-0.14367512721677222;0.5043753486782201;0.14811452032618;0.048985545698183586;-0.4193825204011965
A;23.2;0.9494602901607703;-0.2038774867584987;-0.04067943196910129;-0.1579200736905486;0.5311905772814463;0.1480484235264754;0.0338702342503403;-0.4241446262311932
A;23.3;0.9959303627001219;-0.2055291011533793;-0.09283845389511836;-0.1724696127841323;0.5584198368464968;0.14774002419729548;0.018127629127647538;-0.42899391425056166
A;23.4;1.0428480264074338;-0.2072077450726404;-0.14592685107622394;-0.18720054069510716;0.5856752310859719;0.14725467453878593;0.0018707987223596234;-0.4339204699962682
A;23.5;1.0899674695878865;-0.20890784113262484;-0.19935008385138175;-0.20200223312795984;0.612596503605431;0.14665405370453577;-0.014820007637862176;-0.43892415348949676
A;23.6;1.1367604282459869;-0.21065269190733105;-0.252306648744403;-0.21668797624817593;0.638862349072955;0.14598210190757044;-0.03146635760947092;-0.44385886635810046
A;23.7;1.1825526264608825;-0.21247502131963714;-0.3037774009770393;-0.23102031444585602;0.6640875845375795;0.14528994463513456;-0.04741448876680465;-0.44852101189486504
A;23.8;1.2270165208617367;-0.2143907790160995;-0.35339077630665905;-0.2448965375316181;0.6881429715722405;0.1445875328938282;-0.06239962031299129;-0.45282333913378814
A;23.9;1.2698061829787672;-0.2164186160524757;-0.4007806481411862;-0.25821117177612685;0.7109172529578167;0.14388193715916842;-0.07612396523785847;-0.45666584180801806
A;24.0;1.310303296076766;-0.21858006449932788;-0.4448336405322868;-0.27072698961114483;0.7319250253352472;0.14324241559152284;-0.08804547088637449;-0.45989288973781406
A;24.1;1.3479887462801639;-0.22088844571317523;-0.48455127771311357;-0.28223801381325586;0.7507032890485377;0.14273416331270994;-0.09775309238228402;-0.46239255039373894
A;24.2;1.3821390854173714;-0.22337366359146849;-0.5187107987008224;-0.2924766607801397;0.7667544689778509;0.1424349342568565;-0.10455302057547478;-0.4639596314260732
A;24.3;1.4120874844250295;-0.22606174530104184;-0.5461581253712371;-0.3011930849380082;0.7796010776436972;0.14241672758602952;-0.10782139898064713;-0.46441100364373256
A;24.4;1.43798117160196;-0.2289370543570879;-0.5672487744353596;-0.30845379178667187;0.7893559643287595;0.14264768870041422;-0.10786742150669681;-0.4638393410648707
A;24.5;1.4601759766850755;-0.23197549997699696;-0.5827890146436632;-0.31441424791555495;0.7963292163511788;0.1430677217576477;-0.10521390572835543;-0.4623975663084412
A;24.6;1.479038303941925;-0.23514598888445626;-0.5933601138530316;-0.3192038372419477;0.8006840285952492;0.1436222931693063;-0.10045305141527372;-0.46026870267328235
A;24.7;1.4950535321719638;-0.23841117532160538;-0.5997589239244521;-0.3229977759753764;0.8026684278326393;0.1442425010039301;-0.09431084386226729;-0.4576755293357344
A;24.8;1.5082905581446493;-0.24176581356325144;-0.6023703021201126;-0.3258544972516306;0.8024708406450465;0.14490792179991807;-0.0869141327525913;-0.4546499057263116
A;24.9;1.5187219866276873;-0.24520994124489803;-0.601380123157905;-0.32779237019310425;0.8002045425468616;0.14561160489785152;-0.07826824501784913;-0.45118813854181994
A;25.0;1.5265870710798968;-0.2487300482779471;-0.5975354740829371;-0.32894233062448475;0.796210236972275;0.1463100819704799;-0.06868807285828993;-0.44737577336967504
A;25.1;1.5321067707335931;-0.2523145336311998;-0.5915603982772479;-0.32942964132696595;0.7908282732140144;0.14696374650693578;-0.05844965886209508;-0.44328644248904325
A;25.2;1.535569815515876;-0.2559352078789132;-0.5837051666708675;-0.32932981772487846;0.7840811644112939;0.14753426021925975;-0.04803247849883263;-0.43907472057068375
A;25.3;1.5373539849510838;-0.2595545330983189;-0.5742113051528417;-0.328731210575242;0.7759442993218393;0.1479733898685982;-0.03806891062692053;-0.43494638039274314
A;25.4;1.5375699012076165;-0.2631577553048974;-0.5630678553528314;-0.3276489956053297;0.7663733343482768;0.14827225119287668;-0.028763350269827015;-0.43097282830409256
A;25.5;1.5363347643250371;-0.26672882979718615;-0.5502055175013876;-0.32609191239934354;0.7552910004773992;0.14842350351817402;-0.020328968241861034;-0.42723032704836683
A;25.6;1.5340634779098412;-0.27023206542590295;-0.5361934340448062;-0.32419653370243307;0.7428506082394968;0.14836856151466726;-0.013406757028475269;-0.4239181604231703
A;25.7;1.5311217264428798;-0.2736377818893221;-0.5216609323875403;-0.32209986844538907;0.7292645053944256;0.14805476101689052;-0.008541449235169196;-0.4212022580666712
A;25.8;1.528025259134445;-0.27690258876396;-0.5071564838095073;-0.3199506759811639;0.71464982442237;0.14741607564635117;-0.006491768514443663;-0.41932274438365624
A;25.9;1.5252494667630465;-0.2799862875634087;-0.4932225758359765;-0.31789107754245904;0.6991356033103386;0.1463915574865382;-0.007955980665919071;-0.418499741878259
A;26.0;1.5226228244307851;-0.2829032171888137;-0.47981407886797545;-0.3158896456800111;0.6828039620624189;0.14501621932218534;-0.01261558695592413;-0.4186345051933742
A;26.1;1.5198253589691273;-0.2856811467520064;-0.4666728549724324;-0.3138644577207561;0.6656981958919985;0.14335221383929841;-0.019885577326677506;-0.41954733569041913
A;26.2;1.5164991880709753;-0.28834722193643714;-0.4537326688871204;-0.31175433518505624;0.6479420130118996;0.14145288302668213;-0.02921300932976756;-0.42106040077642426
A;26.3;1.5122006685702;-0.2909363092261028;-0.4408530390122296;-0.3094756262981404;0.6296574218606388;0.139385049241616;-0.03990216935381241;-0.42295104765349656
A;26.4;1.5069145191127848;-0.2934540873750855;-0.4279073812815586;-0.3070077467744712;0.6108749577328325;0.13717859625447737;-0.051741261328160704;-0.4251614488401998
A;26.5;1.5007112637627351;-0.29589847735800845;-0.4148380056228662;-0.30435182723308873;0.5916275597303411;0.13485080068869237;-0.0646515073521261;-0.42767542896636
A;26.6;1.493456591577221;-0.2982877260521608;-0.4013857291506122;-0.3014524980445632;0.571932833948491;0.13245337576549154;-0.07820503521909927;-0.43036891413236766
A;26.7;1.4850493990464084;-0.3006377453724838;-0.38729212620090614;-0.2982591255529474;0.5518031971419148;0.13003530886187598;-0.0920062588808257;-0.4331287131182382
A;26.8;1.4752162038504562;-0.30296498657770954;-0.3726194151063922;-0.29474042503362163;0.531380441819735;0.12763181579069283;-0.10567200068109805;-0.43582680269503093
A;26.9;1.4635711328860275;-0.30529235126051546;-0.35749450551237416;-0.29085840475474356;0.5108495196211287;0.12528286812654343;-0.11873099266907339;-0.4383017086732668
A;27.0;1.4500550029874884;-0.30762004957045264;-0.34204636491765505;-0.2866207446382454;0.49033621892924373;0.1230010126665082;-0.1310506572161234;-0.44050730626938694
A;27.1;1.4346016367211458;-0.30994761407295;-0.3264361150180708;-0.2820384602461363;0.46997618954229736;0.12079613193676053;-0.14251218727717685;-0.4424000032109543
A;27.2;1.4168487408353307;-0.3123056956035999;-0.3106645019968237;-0.2770609753026596;0.4499185503939316;0.118721885857207;-0.15255895937642627;-0.4437989613607627
A;27.3;1.3965192126239003;-0.31472231285083474;-0.29468947068077345;-0.27164411304799074;0.4302876902499122;0.11683033775517337;-0.1606817862614296;-0.444542903063466
A;27.4;1.3731534871534947;-0.31723174268746845;-0.2785223867315594;-0.2657243937068916;0.41124337554134627;0.11517758576095538;-0.16625941770276675;-0.4444258439865685
A;27.5;1.3463458265311203;-0.3198668096876247;-0.2621829742960884;-0.25924744691966595;0.39294070504134027;0.11381658121174354;-0.16871674819099525;-0.4432582362105588
A;27.6;1.316477205047672;-0.322606204146064;-0.2457219680260465;-0.2522724641030525;0.375412322604987;0.11273478226468114;-0.1682803244093911;-0.4411233026217882
A;27.7;1.2841246766569672;-0.32541239323860083;-0.22919185618566118;-0.24488521848449718;0.3586491272190102;0.11189930511010004;-0.16540279040163064;-0.438179289557473
A;27.8;1.2498764773649693;-0.32825989395644584;-0.21269695037829983;-0.2371835187730218;0.3426765499142448;0.11128666459827485;-0.1604870016819664;-0.43457278918382514
A;27.9;1.2144319557005154;-0.3311158467519295;-0.1963424931887694;-0.22928091122793504;0.32750036856219467;0.11086410965119242;-0.15404788842851325;-0.43048853920516805
A;28.0;1.1780559443271663;-0.3339599986922277;-0.1801240948296572;-0.22121000515221745;0.31311771771587615;0.1106167023786444;-0.1462736261515012;-0.4259917955033945
A;28.1;1.1409094653153282;-0.3367809330680842;-0.1640459871100104;-0.21299040932185687;0.2995408038535565;0.1105370054554271;-0.13725830338198186;-0.4211154955608105
A;28.2;1.1034197748120604;-0.3395437506373309;-0.14808904588540273;-0.20467545337934645;0.28673286562489864;0.11059524769472695;-0.12735422252382023;-0.415979545966664
A;28.3;1.0659827961047146;-0.3422155652547776;-0.1322269713564932;-0.1963128333774833;0.274652032956304;0.1107622739139682;-0.11689728666566879;-0.4106976473210793
A;28.4;1.0290652701313299;-0.3447910268731764;-0.1166435168856026;-0.1879974210337565;0.2633565966470144;0.11102354384232171;-0.10619189850990196;-0.4053830473147073
A;28.5;0.9932291620023008;-0.34726637459563037;-0.10158049100487165;-0.17984849107646994;0.25292715674981636;0.11136410243657835;-0.09559088335672072;-0.40016854891154097
A;28.6;0.9587183475152177;-0.349649903830489;-0.08717121594586086;-0.17192081323710884;0.24341073947082137;0.11178018195751172;-0.08523447447233679;-0.3951095000854501
A;28.7;0.9257691871569147;-0.3519541061241114;-0.07357146882286703;-0.16427235198787837;0.234861629368595;0.11226950380359568;-0.07525525890806328;-0.39025927361517176
A;28.8;0.8949760964209865;-0.3541553133179107;-0.06090893276696363;-0.15700971931503815;0.22730817235941814;0.11280791888757058;-0.066047547949454;-0.3857600083155752
A;28.9;0.8668716183058063;-0.3562255341703846;-0.04924068940832882;-0.15021917288966957;0.2207507238695925;0.11337075512625461;-0.057970784439653755;-0.38173931210602596
A;29.0;0.8421075126074786;-0.3581479134275476;-0.03878001763073602;-0.1440306054848124;0.21523155628711166;0.11393085416538717;-0.05148625705442278;-0.37836349225286803
A;29.1;0.8212867068763643;-0.3599039097825507;-0.029698050891668437;-0.1385609790740192;0.21078184580238357;0.11446307391306121;-0.047010420910995165;-0.37578232285920876
A;29.2;0.8042623835986635;-0.36150187502324194;-0.021870668839970797;-0.13376809678949098;0.20734595953772939;0.11497059976795754;-0.044441463899424605;-0.3739584825424327
A;29.3;0.7906727002877325;-0.362964499840869;-0.015141490961471327;-0.1295728807470855;0.20484930735652185;0.11546352430279327;-0.04355611326261055;-0.3728104871112272
A;29.4;0.7801950644150644;-0.36428878554209376;-0.009203019370087162;-0.12588162809253944;0.20320225143126436;0.11595501590639934;-0.04405582331305169;-0.3722296742512654
A;29.5;0.7723970185986246;-0.36547545824611305;-0.003702526700464226;-0.1225772904666611;0.20229948210132065;0.11646185420929811;-0.04556954117842338;-0.37208087323819505
A;29.6;0.7671358053763786;-0.3665517121125408;0.0013171614294282818;-0.11964781435168614;0.20209462271586887;0.1169806678615597;-0.04810130972195026;-0.37236207502192364
A;29.7;0.7643493447844651;-0.3675402266912844;0.005780433442833299;-0.11710046523125861;0.20255202088718605;0.11750548992475807;-0.0517026137079295;-0.37308799378964075
A;29.8;0.7637363137401536;-0.36847917998457724;0.009688214822306307;-0.11489045743091086;0.20360208711592875;0.11803669339091272;-0.05629839084755339;-0.3742278805598662
A;29.9;0.7650022628935638;-0.3694080228672174;0.013016481807230917;-0.11297923692787215;0.20517749764375282;0.11857355854389873;-0.061829637403251425;-0.3757561096410367
A;30.0;0.767883362264973;-0.37030518772589005;0.0161192297411743;-0.11128393509713241;0.20719373473789915;0.11913122030277812;-0.0679573114145473;-0.3775481394892637
A;30.1;0.7720738292759641;-0.37113340533567474;0.01950067199171457;-0.10969249391601288;0.20954952505286073;0.11973091163194738;-0.07422829294648814;-0.3794393706060575
A;30.2;0.7774349317843221;-0.3718745909755121;0.02335828861128153;-0.10816990995365572;0.21218339545107412;0.1203791431029444;-0.08044728370200538;-0.3813543771674741
A;30.3;0.7838282974889292;-0.3725041661547017;0.027923631346043365;-0.1066779373277944;0.2150332649051414;0.12108404740094514;-0.08638828024582956;-0.38320647982521017
A;30.4;0.7909056767065117;-0.3730135506389036;0.033589191806663976;-0.10510578367297008;0.21798621578616562;0.12185893389261082;-0.09171608450180457;-0.3848732971506976
A;30.5;0.798343418285187;-0.37340890989309905;0.04063339982293357;-0.10336157906231058;0.22093444224094227;0.12271066649647366;-0.09620044999193134;-0.38626923781145095
A;30.6;0.8057151587187779;-0.3736653550284146;0.049577766599955275;-0.1013089129505147;0.2237604469572858;0.12366160591392905;-0.09934994532631514;-0.3872154443010949
A;30.7;0.8126318445668073;-0.373764170394546;0.06088979216464008;-0.09882280818780487;0.22634908153534639;0.12472958171653481;-0.1007441132621576;-0.38755825950837064
A;30.8;0.8191211031831838;-0.37373372120733706;0.07429095872303826;-0.0959649847743842;0.22867589941536792;0.125894860871961;-0.10061318999816926;-0.3873695807564488
A;30.9;0.8252910914575047;-0.3736070768814539;0.0893353254915894;-0.0928432559067307;0.23074745473794422;0.12713213014124491;-0.09928960979585177;-0.38675493990753473
A;31.0;0.8313551766910088;-0.3734395824575767;0.10552819064890606;-0.08956588661146192;0.23254568072086457;0.12840142061517845;-0.09732685632311622;-0.3859025247899037
A;31.1;0.8375822223088338;-0.37329350037276754;0.12226789668811922;-0.08626712636398715;0.23406555461264844;0.12965742634300703;-0.09537023183316329;-0.3850323332390442
A;31.2;0.8438484834411266;-0.37317085204582057;0.13943265545129258;-0.08297876896378487;0.23529983869117999;0.13089787298862987;-0.0933630406801278;-0.3841107530960599
A;31.3;0.8499906279183129;-0.37306732160528533;0.15700558662580022;-0.07970720498876904;0.23623076654410013;0.13212447396530358;-0.09117498607288255;-0.3830790217445159
A;31.4;0.855939051054202;-0.3729910912716221;0.17470662825974692;-0.0765235916157323;0.2368733182488576;0.13333024156489692;-0.0888417016539691;-0.3819346524588916
A;31.5;0.8616022486839388;-0.3729463052099167;0.19229127271698943;-0.07349134568042004;0.23724452618287373;0.13451088399007638;-0.08635406887146502;-0.38065904750467183
A;31.6;0.8672436174535232;-0.3729885874044214;0.20939011862457946;-0.07068668447955773;0.23730732918397734;0.13562219674826714;-0.0843102671747804;-0.3794605270518794
A;31.7;0.8732621488426417;-0.37319426192075156;0.22551391113464891;-0.06820825228953531;0.2370136542205863;0.1366047434098654;-0.08355318054468874;-0.3786375398448829
A;31.8;0.8797650723309793;-0.37359631477754895;0.2405282187106197;-0.06607841080984755;0.2363261159444292;0.1374313335324473;-0.0843973423295239;-0.3782966477980576
A;31.9;0.8868977193578615;-0.3742315855787197;0.25429924559518646;-0.06431807761131658;0.2352035450174519;0.13807123789366038;-0.08721128446085658;-0.37856519810811484
A;32.0;0.8949204324573916;-0.3751601584076596;0.2662946262062187;-0.06303892304354264;0.2336244869004993;0.13847991529967985;-0.092636508329214;-0.3796662233132828
A;32.1;0.9039721930756279;-0.376426469620613;0.27604859005662874;-0.06233941582506386;0.23157996446344242;0.13862587780399593;-0.10111614237381161;-0.3817496882177078
A;32.2;0.9144856064260356;-0.3781057046346099;0.2829597291000452;-0.062347051444695545;0.22904638198918548;0.1384496426065187;-0.11352581501330583;-0.3851264983091802
A;32.3;0.926823979678403;-0.3802652926718668;0.28646478722768;-0.06318001392281491;0.22600332730131356;0.13789884643286499;-0.1306364183776978;-0.39006978789644187
A;32.4;0.9406133961292671;-0.3828710703603715;0.2868340601239101;-0.06477461646101279;0.22245614601433417;0.1370000948450425;-0.151929433642211;-0.39638279565299506
A;32.5;0.9553585003735758;-0.3858642137534698;0.28457890313632994;-0.06701646501460878;0.21841809178523874;0.13579603781036909;-0.17661370024404732;-0.4037712280109478
A;32.6;0.9703758253911445;-0.3891810057393048;0.2800984711985661;-0.06980825704384319;0.21389970568603545;0.13434259216839273;-0.2037401710469311;-0.4118819768330866
A;32.7;0.9848791634261591;-0.39274281572051883;0.27390957122604487;-0.07302700902926951;0.20891762538151326;0.1327073698648693;-0.23217446310124856;-0.4202947164953592
A;32.8;0.9988114612451255;-0.39652861085444435;0.26626641046425625;-0.07662052528128172;0.2034863718301807;0.13089551064930305;-0.2617275549595597;-0.4289404050245853
A;32.9;1.0122197270580422;-0.4005299003983058;0.25730718650934303;-0.08056147958016968;0.1976171752864282;0.12890219190837016;-0.2923839279026641;-0.4378151144406299
A;33.0;1.0249160675951536;-0.40470505270433677;0.24748606712381882;-0.08475465409798932;0.1913373013181463;0.12674852217184807;-0.3236960671686777;-0.44675456905345
A;33.1;1.0367714968892745;-0.40901538268359694;0.23723696146991458;-0.0891104265789533;0.1846751602525103;0.12445161009617145;-0.3552838484644809;-0.45562105220335525
A;33.2;1.0471630426955016;-0.41340847009854365;0.2267558279768469;-0.09356962742670127;0.17763732989795145;0.1220630314234814;-0.38634767436054673;-0.4641228365454495
A;33.3;1.0552272149437947;-0.41781903707506984;0.21624772742948561;-0.09806363962314624;0.17022954082151287;0.11965360185728358;-0.4158209798108832;-0.4718682023602856
A;33.4;1.060684758756004;-0.42221899063976664;0.20573533567421265;-0.10257791920240678;0.16245761467796882;0.1172470574645974;-0.44334723720661806;-0.47873481693872755
A;33.5;1.063226780473025;-0.426579623310511;0.19520584256183593;-0.10710351456512424;0.15432631180663137;0.11486991853105266;-0.4685495360549705;-0.48459376491668493
A;33.6;1.062089508485787;-0.43083371072963494;0.1850459437139209;-0.11153899738836515;0.14586517647202513;0.11258972577129356;-0.49037836576570015;-0.4890552976665763
A;33.7;1.0566831635513516;-0.43492178818858207;0.1756660879115035;-0.11578403580290786;0.13711182665479882;0.11046151445721364;-0.5079568850523479;-0.4917937962473502
A;33.8;1.0460798264022184;-0.4387652563878017;0.16743114210387589;-0.11973487712246111;0.12809207430619907;0.10856892811208674;-0.5200491855712706;-0.49235322779347257
A;33.9;1.0294362325220554;-0.44229146910370254;0.1607005240705206;-0.12329140264212324;0.11883797669832319;0.10698938545212222;-0.5255141408520441;-0.4903111344451805
A;34.0;1.0073041900160398;-0.4455157223056663;0.15541480571557198;-0.12648175925833804;0.10938150315388029;0.10568618253535256;-0.5248995019591636;-0.48588605949630903
A;34.1;0.9806020149974479;-0.44847531118809236;0.15135535504894548;-0.129376476869143;0.09974983951603988;0.104594528974566;-0.5192055267475535;-0.4794714642945124
A;34.2;0.9501803369611252;-0.4512105515482112;0.14846176269618194;-0.13201340499341896;0.08999965902237506;0.10365311359872997;-0.5093269042536974;-0.4714039579959568
A;34.3;0.9170918537466761;-0.45377415067219573;0.1466168851650398;-0.13444809169095429;0.08018858761301573;0.10278461199017919;-0.49639887248354064;-0.46211202513100247
A;34.4;0.881765831699914;-0.4561688741566847;0.14566262924624862;-0.13671968784628064;0.07033925113054451;0.10197138130294015;-0.4808314095863828;-0.45177068985040414
A;34.5;0.8444361859599141;-0.45838730211507794;0.14549102508730716;-0.13884998329291953;0.06047967278064803;0.10121310088885593;-0.4628029153632447;-0.44046387431498246
A;34.6;0.8058583071839891;-0.460449316468317;0.1458381735173191;-0.1409107166766672;0.05062294076568463;0.10046487945584737;-0.4431113331377201;-0.42852295548734
A;34.7;0.7667415628121468;-0.46237217706290323;0.14643492103045475;-0.14297206165084564;0.04078302704511927;0.0996873581324067;-0.42250206556822256;-0.41625884005655855
A;34.8;0.7276382075139747;-0.46418998973616965;0.14732926776003108;-0.14503714409159407;0.031048500539508694;0.09884703802424255;-0.4015243051949362;-0.40385900584635515
A;34.9;0.6891993600789075;-0.4659490708607983;0.1486405110333715;-0.1471002346197281;0.021524096475644683;0.0978979546629688;-0.38083722822696764;-0.39154374582408735
A;35.0;0.6516291104226095;-0.4676612369002182;0.15043813660350214;-0.14914420143247042;0.01229951711868793;0.09684264806711518;-0.36058057753445283;-0.37934235860530663
A;35.1;0.6150924754327889;-0.46933993956535147;0.15282352346013361;-0.1511438293489027;0.003472909821965686;0.09568659809534985;-0.34085117087922256;-0.3672624170604841
A;35.2;0.5804695204983759;-0.4710301430439525;0.15578081034979618;-0.15313134537641204;-0.004898827874690426;0.09436270838530447;-0.3225698038986806;-0.35565960891997683
A;35.3;0.5486201232926735;-0.4727680557935443;0.15923414873896125;-0.15514985251221347;-0.012779129519838506;0.09280775278982034;-0.30663107247757715;-0.34489322879566053
A;35.4;0.5204377765057178;-0.4746135159293807;0.16321114531208014;-0.15722184889103907;-0.02008675811363858;0.09095197492227314;-0.293995822269288;-0.3353178172377209
A;35.5;0.49678546956194936;-0.47662015202627117;0.16773089954379916;-0.15937138891555058;-0.026754500757753874;0.08872755660554787;-0.2855838551703549;-0.3272826953178445
A;35.6;0.4774938373804911;-0.47875641854537676;0.17269897014126379;-0.16159592695487657;-0.03275352070173554;0.08618044480515685;-0.28109921803630833;-0.3206899079982417
A;35.7;0.46204243333406225;-0.4809728825991897;0.17800504238329484;-0.16387767175521795;-0.03804921052374155;0.08339464855330192;-0.2798550266866364;-0.3152848839511435
A;35.8;0.4501864048315678;-0.48321016804720784;0.18353166159023893;-0.16622246922476602;-0.04267804615557935;0.08041736739961891;-0.2814287035946954;-0.31097058693541335
A;35.9;0.4415351759520725;-0.4853973004814556;0.18914251700593354;-0.1686330370765159;-0.04668388486568631;0.07731145816068086;-0.28522974765975206;-0.3075885718171474
A;36.0;0.4357763814583233;-0.4875282950653368;0.19478056996815596;-0.17108752361681656;-0.049993802019177025;0.07413449588131549;-0.29088216953228496;-0.30497835569882703
A;36.1;0.43272759437150654;-0.48960882753372736;0.20041837116678884;-0.17356619488414537;-0.05253988763686479;0.07092578161152652;-0.29816811392979936;-0.30304633691410565
A;36.2;0.4318152809529021;-0.4916166274714584;0.20595942586863014;-0.17603989125705244;-0.05424125036170935;0.06777508068781479;-0.3064189095882419;-0.30150400956133794
A;36.3;0.4324647603120564;-0.4935347180902312;0.211317969194182;-0.17847742383486054;-0.05501590042747395;0.0647698722598502;-0.3149801545355455;-0.30006785361140587
A;36.4;0.4346790379402652;-0.49531387636890045;0.21645697014138854;-0.18089213090670064;-0.05496582122179916;0.06191066897699926;-0.3237173440714507;-0.29880382431518804
A;36.5;0.43855632635296793;-0.4968857589211222;0.22132569281539993;-0.1833112582155012;-0.05424556347933418;0.05918438840915208;-0.3325544608535349;-0.2978361456571914
A;36.6;0.4442063496916333;-0.4982340642114327;0.22593642148845738;-0.18574256621629637;-0.0529393197925252;0.056572036740051956;-0.3415475125665779;-0.2972963985659316
A;36.7;0.4517979144231301;-0.49934091572125006;0.23031440002706383;-0.18819773562364794;-0.05115424895733511;0.05404313011123563;-0.35081365772459705;-0.2973570038426647
A;36.8;0.4611264410871012;-0.5001415921350407;0.2343334358082565;-0.19069054539717722;-0.04895965389882306;0.05163526175299182;-0.3599877171974182;-0.2979412335679825
A;36.9;0.47188143755891154;-0.5005851015428213;0.2378527790926519;-0.1932256285173084;-0.04637743230794911;0.04940309866476511;-0.36863198465852776;-0.29890274407613227
A;37.0;0.48392123554222266;-0.500592269019478;0.24078577742918217;-0.19582347640888376;-0.04354769333817998;0.047361559419780264;-0.37642456340161523;-0.30023635307531293
A;37.1;0.49708623265112273;-0.5000913247864034;0.24302931425013696;-0.19850314912942846;-0.04058515336102175;0.045531758840517966;-0.3830463790641385;-0.3019112656686396
A;37.2;0.5112471356720398;-0.49913600399320934;0.24460153335297363;-0.20123999297724549;-0.03742542023051243;0.04392615194231908;-0.38849684331070655;-0.3039086725339821
A;37.3;0.5263211139379198;-0.4978126601525119;0.24559932033029686;-0.20399743679459537;-0.033993570926131866;0.042537815928128;-0.39290360189777296;-0.3062638997786191
A;37.4;0.5421236056224963;-0.4962018791560432;0.24594223941760518;-0.20674797662435118;-0.030100681796216833;0.04141265537205463;-0.3962766176888195;-0.30883629360541676
A;37.5;0.5584655825516247;-0.4944022131696215;0.24556714209773833;-0.20945776610182687;-0.02553399574027182;0.04059551274605511;-0.3986663426916479;-0.3114832187272132
A;37.6;0.575287761618652;-0.4924532817046998;0.24463087383833582;-0.21210300134075233;-0.020360391831115265;0.04004825891766828;-0.4001409498061239;-0.3143197124353545
A;37.7;0.5925381066721158;-0.49037675700278704;0.24326369867231268;-0.21466823266915736;-0.014667143040444586;0.03973350101803064;-0.4007416471000784;-0.31745241678307856
A;37.8;0.6101570322628618;-0.48824192603933625;0.24168656364193986;-0.2171168991740693;-0.00851259446249486;0.039602559679920546;-0.4006103367748395;-0.32102993202354213
A;37.9;0.6280943559559784;-0.48611311931321666;0.24013187524997992;-0.21941420686119173;-0.001972544214730476;0.03960076185903816;-0.3998927500734748;-0.3252122131533586
A;38.0;0.6461767187907199;-0.4840433841892704;0.2383802497121481;-0.22155513657344983;0.00517072455303591;0.0397949482432427;-0.39857695765746826;-0.329761159752481
A;38.1;0.6641770638291504;-0.48209638768659246;0.23609000868829622;-0.22353749278471913;0.013237095246989128;0.040290524243088655;-0.3966166434887448;-0.3343201995933569
A;38.2;0.6819545367915101;-0.48028995124397156;0.23309073135032676;-0.22536635292535845;0.022349192793136297;0.04112858886829862;-0.39396637906558674;-0.33870553101705525
A;38.3;0.6993613012970723;-0.47863842495896947;0.22916536593801684;-0.22705121188425004;0.03265406918915659;0.04236108381992665;-0.39057138344692;-0.3426921312321429
A;38.4;0.7161723431084432;-0.47722650546148415;0.22418354882541802;-0.22856853972558167;0.044351460162502576;0.04404706189314744;-0.3864389830962267;-0.34609052155937725
A;38.5;0.7321809297722321;-0.47613561480908473;0.21813182876389714;-0.22988852657343806;0.05755397891318026;0.04621415975788601;-0.3815901601151186;-0.3488104424406
A;38.6;0.7471657336201396;-0.47545263830342677;0.21075272534309164;-0.23099716252192692;0.07254936657669475;0.04895104505626158;-0.37606190671656137;-0.3505489694598225
A;38.7;0.760898269658842;-0.4752615076250848;0.2018433939043165;-0.23187683362992217;0.08957805112390105;0.05233381874892373;-0.36987969664902387;-0.3510468552284518
A;38.8;0.773325565116119;-0.4755384152771214;0.19162593142245754;-0.23252327631766434;0.10841659369446788;0.056286438847834575;-0.3630220570193661;-0.3504583470156657
A;38.9;0.7844695102779102;-0.47622371982250655;0.18037788988902737;-0.23294413149843507;0.12874410975439332;0.060700204363204335;-0.3554869690325546;-0.34900201233642925
A;39.0;0.7942226031365465;-0.47728734346953594;0.16855568503777985;-0.23311544192077882;0.1501450825757935;0.06545097955396884;-0.34717731403179464;-0.34702187303153487
A;39.1;0.8025062064725041;-0.47868377617654545;0.15667796027167125;-0.23301545655988942;0.1721377796357899;0.07039242483672403;-0.33799143408537624;-0.3449220060242606
A;39.2;0.8093544603521323;-0.4803776047704531;0.14477071638770234;-0.232663511159811;0.19459950248489477;0.07548032987222619;-0.3280481109688189;-0.34269264956975576
A;39.3;0.8147663610266616;-0.4823485977106863;0.13281020650594044;-0.23207519065535553;0.2174547465395733;0.08069181687482896;-0.3174745224996123;-0.3402707371343734
A;39.4;0.8188615951534892;-0.4845310766804296;0.12087227514634158;-0.23128237473854973;0.24052298854343235;0.08595265748864023;-0.30638390935991033;-0.3377115731922693
A;39.5;0.8217652948309428;-0.4868604943314523;0.10900470840111254;-0.2303186577007974;0.26363821974966584;0.09119544124111201;-0.2949132714309446;-0.3350445533338391
A;39.6;0.8232450261720992;-0.4893386655108447;0.09768575196209728;-0.22913872308605043;0.28637745656811475;0.09632192337117829;-0.28292322686432847;-0.33260047055600594
A;39.7;0.82299549239276;-0.49197602095018844;0.08755743097511193;-0.22767784027995575;0.3082225526424551;0.1012095829917321;-0.2701646931788151;-0.33084224314171706
A;39.8;0.8207911966920651;-0.49479123678899484;0.07892913788406108;-0.22589646332392643;0.3288617865668755;0.1058042755661397;-0.25662411601129165;-0.3299419892723243
A;39.9;0.8163739324741641;-0.4978103941014691;0.07214406586676958;-0.22374761710614965;0.34796242742025996;0.11005224405507441;-0.24226386226936114;-0.330095806185712
A;40.0;0.8096674566409945;-0.5010019183561969;0.06768076582501958;-0.2212106100308553;0.36514374179432707;0.1138295426446998;-0.22689770459191116;-0.3316823232502486
A;40.1;0.8006946994406707;-0.5043214360681976;0.06588537857534771;-0.21828570601314468;0.38011798387694995;0.11702655315837518;-0.21042355085434572;-0.33498349979933906
A;40.2;0.7892951576682865;-0.5077479268529963;0.06736947855929643;-0.21493217431823552;0.3923964516501215;0.11950836374061957;-0.1925679573947061;-0.3404864091200448
A;40.3;0.7753691885769101;-0.5112556864096476;0.07266893675775332;-0.21112132474766465;0.40156137958515004;0.12114970194316932;-0.17308505803489815;-0.3486281759849881
A;40.4;0.7590117003650967;-0.5148387754051083;0.0815433429028074;-0.20688298933081128;0.4076788481956193;0.12198008888234746;-0.1523233354016309;-0.3591575429128202
A;40.5;0.7403177656464948;-0.5185055600608752;0.09357830633082376;-0.2022523665074596;0.4108965674790035;0.12207551083676904;-0.13077550926166026;-0.3716622556648481
A;40.6;0.7196383032355662;-0.5222287807016155;0.1082278291514589;-0.19731080796807188;0.41158962598814597;0.12149886070398708;-0.10888148652585805;-0.38569180026589756
A;40.7;0.697360288122173;-0.5259830245976325;0.12483202774187419;-0.19214890190278489;0.4102074762100152;0.12033568924759308;-0.08716528437970261;-0.40069707979283464
A;40.8;0.6734520445031684;-0.5297823012908953;0.143281853349003;-0.1867684570638577;0.40665944208753757;0.118624441929013;-0.06586608801279503;-0.4165494294597991
A;40.9;0.647898299340854;-0.5336354726098165;0.1635425063823277;-0.18117063569209169;0.40083659803721616;0.11638788911234599;-0.04511165787131155;-0.4332107597654353
A;41.0;0.6206367304463303;-0.5375683140923275;0.18539137284326124;-0.17535461599834434;0.39268376398193894;0.11369552199277777;-0.025309000639026635;-0.45041199362078643
A;41.1;0.5916051544137808;-0.5416071999122298;0.20862218168085356;-0.16931846188618227;0.38213496086703813;0.11061749336507276;-0.006825236329556006;-0.4679116243350414
A;41.2;0.5613888757255001;-0.5456985860090988;0.23265677685616915;-0.16317868114439715;0.3697673068003837;0.10720449426452205;0.010147853720194888;-0.4853529867070083
A;41.3;0.5307438753653102;-0.5497688336617124;0.25676942630907895;-0.15708414741084642;0.3563551585035256;0.10350860425638508;0.02537224005235217;-0.5022780139416234
A;41.4;0.500209864423848;-0.5537661528897164;0.28054622874272983;-0.15113763889780696;0.3423408357994866;0.09956527842657792;0.03888040471357357;-0.5185262012461553
A;41.5;0.4704048163660097;-0.5576299801528037;0.303534778507597;-0.14545518743000585;0.3282513337871755;0.09540929245330076;0.050749038580821804;-0.5339343580378184
A;41.6;0.44173129710449466;-0.5613270011384905;0.3251847401324923;-0.1401194292008361;0.31454076294520306;0.0910992342510415;0.06051595812100352;-0.5480261494730385
A;41.7;0.41441618006937375;-0.5648430479410997;0.3450773890591501;-0.13517925983737555;0.3014632709803706;0.0866925895386359;0.06770082315355275;-0.5603874900472405
A;41.8;0.38910992667507216;-0.568122576217938;0.3624726109439118;-0.13076157889132833;0.28979722596428203;0.08226202595696464;0.07192518638414569;-0.570466046405592
A;41.9;0.36635280412023974;-0.5711195695521241;0.3767291574670377;-0.12697130407653923;0.28020776964332583;0.07787262745900314;0.0727919954831755;-0.5777503862825704
A;42.0;0.3461380435500381;-0.5738402552481148;0.3879554199374109;-0.1238004482438333;0.2724683701961794;0.0735476269986517;0.07050258281528343;-0.5824343275615487
A;42.1;0.3284575738997546;-0.5762930924130831;0.3963723848830023;-0.121235959476242;0.2663040362546738;0.06930823310510625;0.06553863202229238;-0.5848998190146499
A;42.2;0.3127744466901632;-0.5785279197372013;0.4025432467404162;-0.11916730363032446;0.260935600925297;0.06513575516508396;0.05793349264077641;-0.5854974250008809
A;42.3;0.298468973293323;-0.5806027449166145;0.40713934529590023;-0.11746644171486675;0.25544420412172286;0.06100617252973706;0.04780610553646625;-0.5846776673518157
A;42.4;0.2860014351699558;-0.5824881073951627;0.409951593168584;-0.11620489215547547;0.2503140516980764;0.056978166166297584;0.0356909930320537;-0.5825700832613947
A;42.5;0.2758565441394971;-0.5841510506287051;0.4107199737987308;-0.1154587512449119;0.2461749886678959;0.05310938519234831;0.02202384583187289;-0.5792125181979486
A;42.6;0.2684969945353206;-0.585564358402884;0.409295446953136;-0.11529883780262118;0.2432958922698809;0.049462220083700714;0.007555673034433497;-0.574890745451448
A;42.7;0.26443122355108173;-0.5866973536830322;0.4054963924220578;-0.11580104491498666;0.24204034528417395;0.046101820744848254;-0.00693951486858424;-0.5698694176558909
A;42.8;0.2627900763199129;-0.5876219591756087;0.4001053509796675;-0.11678944178457495;0.24159122193900373;0.04297032078984664;-0.021799247826450596;-0.5643835674167832
A;42.9;0.2622633925216906;-0.5884439005741768;0.39422350039138365;-0.11800797276630881;0.240540503487356;0.03997393581108;-0.03764262082439096;-0.5587260666711273
A;43.0;0.2622853833116032;-0.5892116593708128;0.3883755032675893;-0.11932228478059947;0.23863497385791987;0.03707714749203106;-0.05474432090024983;-0.5529596415671048
A;43.1;0.26213804159526966;-0.5899849076631494;0.3831940111470278;-0.12057269533673587;0.2355611104201536;0.03422927526298025;-0.073500873849488;-0.5471375067894471
A;43.2;0.2610937200767971;-0.5908272157684795;0.3793431660081783;-0.12161057654811902;0.22990354531264856;0.031396300780372144;-0.09401143790092092;-0.541631650359772
A;43.3;0.25881131887959796;-0.5917737300502992;0.3771937924388089;-0.12234999099372335;0.22049258072508593;0.02858031720097287;-0.11610310530261891;-0.5367880009472668
A;43.4;0.2540472942959351;-0.5929259251303041;0.37782079295318827;-0.12256747351198172;0.2058350660695183;0.025693389708170145;-0.14018615000275325;-0.533024603329725
A;43.5;0.245755182666187;-0.5943706469291197;0.38212664641585725;-0.12208241389345975;0.1845338473896021;0.02266744039376789;-0.16656225549428427;-0.5307337704076858
A;43.6;0.23474101887282295;-0.5960546945646641;0.38957251846687857;-0.12098363229244402;0.1576584530070626;0.019587772586540098;-0.19465363488879106;-0.5297555791575785
A;43.7;0.22207093271856237;-0.5979040001345073;0.3994336162022103;-0.1194075718435883;0.1272335863252536;0.01655104376052563;-0.2238033752442341;-0.5297749664943847
A;43.8;0.20944515783253692;-0.5997989089168936;0.410377572101452;-0.11763954893728545;0.0945669391862225;0.013737241343234174;-0.25295725877629316;-0.5305325586952332
A;43.9;0.19882482901718213;-0.6016000714079794;0.42086752010455797;-0.11599160404885112;0.061207819209410985;0.011347581114943495;-0.280931725470424;-0.5316932567688415
A;44.0;0.1901231353860009;-0.6033171550997274;0.43110826844259975;-0.11448458156843166;0.02920179560767977;0.009357259315914135;-0.30769128663362366;-0.5331368561216099
A;44.1;0.18300527007732015;-0.6049777680080162;0.44147004585039173;-0.11315387005019595;0.00044795702939737225;0.0077201930637915694;-0.3333404155882924;-0.5348176828776339
A;44.2;0.17766857277304382;-0.6065708291146343;0.4519737188867783;-0.11194538769909279;-0.023204611898339778;0.006430899640056609;-0.35769354389952746;-0.5364903445405069
A;44.3;0.1741621792898389;-0.6080953657547994;0.4627510356952014;-0.11078534923240024;-0.039785343836296505;0.005466187807948941;-0.3806583077808412;-0.5379271165247133
A;44.4;0.17414129194227002;-0.609433166555764;0.4723389514652103;-0.11012407073585972;-0.04848458459320781;0.005013685250069955;-0.40125740970947454;-0.5389812319830813
A;44.5;0.17995548397409422;-0.6104163169190127;0.4786533551076477;-0.1104565993246176;-0.04947535226161648;0.005345505368447689;-0.41811062988571557;-0.5394773585330288
A;44.6;0.1923974592284825;-0.610986925380514;0.48090615333219056;-0.11210995766020382;-0.041261839847251736;0.006552443525201568;-0.4307426572235453;-0.5394061606904579
A;44.7;0.21238062762175858;-0.6110777813998887;0.47816720955515457;-0.11554327690322008;-0.022427879606080836;0.008741554886194436;-0.43862345662575386;-0.5387736691556526
A;44.8;0.24181052066464304;-0.6105560664904157;0.46889445226829984;-0.12064091768538976;0.005101099295984568;0.01212204405750228;-0.4405489836674956;-0.5373210061520801
A;44.9;0.28206917059202574;-0.6093271448203215;0.4520466121378872;-0.12705755550851539;0.039229698516013656;0.016837543589742765;-0.4355883500981754;-0.5347990850983511
A;45.0;0.33560740313751936;-0.6072163008353808;0.4255039931039688;-0.1354358655643395;0.07853430316804122;0.02316181973457354;-0.42230799001683295;-0.5309318006480854
A;45.1;0.4046189826487243;-0.6040683762556984;0.3874027304633971;-0.1460866810054302;0.12102287747779883;0.03133875293677235;-0.3993866196075295;-0.525459328544919
A;45.2;0.4875768300649703;-0.5999914589969144;0.33902254966491796;-0.158813526143736;0.16839995101688743;0.04117655640214579;-0.3676249526100328;-0.5185214790502339
A;45.3;0.5820572321333017;-0.5951543432524957;0.28230759375418923;-0.1737867256758614;0.22455337959946675;0.0523785765920497;-0.3284097617839219;-0.5103799380310967
A;45.4;0.6855536906635056;-0.5897423538078961;0.21958454407777772;-0.188877059801853;0.28828441700382257;0.0646421951780205;-0.2829056071310756;-0.501229007831796
A;45.5;0.7950222912924776;-0.5839786331783081;0.15363259698226894;-0.2021854060751318;0.3585907773423642;0.0776013928876953;-0.23258617345109656;-0.49131845381940664
A;45.6;0.9095179686691797;-0.577921285944587;0.08493926570839871;-0.21521010432110455;0.44063529508160215;0.09113145257958699;-0.1781749670327386;-0.4807882476583547
A;45.7;1.0286095902204941;-0.5715930637749267;0.013568181396818702;-0.22918748191472638;0.5387030856781934;0.10517001931723513;-0.12008750894570142;-0.469724669165398
A;45.8;1.1505349043476958;-0.5651064138176949;-0.05936468209705925;-0.24767185365048494;0.6583700843305351;0.11949307616309746;-0.059573507895487765;-0.4583651538937783
A;45.9;1.2736829349000196;-0.5585623596545783;-0.13290542276786255;-0.2741672343510677;0.8053516845646982;0.1338950471788305;0.0021745412797695707;-0.4469373668298484
A;46.0;1.3962018833097307;-0.5521082127014783;-0.20510265019754303;-0.3050817346952259;0.97310303934605;0.14816083420834936;0.06454625344571596;-0.4355449699530727
A;46.1;1.5157726804287126;-0.5459319411666819;-0.2733653659706361;-0.3358625909444468;1.1506598028397974;0.16202336208718826;0.12687999626315083;-0.42429273678473045
A;46.2;1.6316073123781472;-0.5401020507323242;-0.336807312583268;-0.3617670223875997;1.3330972698280554;0.17539426675427272;0.18902515109314955;-0.41319661136007646
A;46.3;1.742955391468044;-0.5346874693738801;-0.3944949558004778;-0.3776582608888841;1.5141212858534772;0.18819268252727284;0.2509241351428919;-0.4022548380096769
A;46.4;1.8471570241045097;-0.5298844443332484;-0.4438769776591984;-0.38514850345691976;1.6848498246551138;0.2000967915797709;0.3114031716704275;-0.3916607595368049
A;46.5;1.9417841493592434;-0.5258645581951047;-0.4828146234317652;-0.38781895814741585;1.8387779008071377;0.21080629885159574;0.3692180916871486;-0.3816176123803743
A;46.6;2.0239373762413724;-0.5228507512593481;-0.508311466092823;-0.38689215666563737;1.9644744767751554;0.2199823492848978;0.4232834049356331;-0.37231129609120295
A;46.7;2.0908745146455416;-0.521050230830852;-0.5175992872984931;-0.3842475468511859;2.050937246663157;0.2273003467359711;0.4725068966613222;-0.3639229475936272
A;46.8;2.1434420278303374;-0.5203883436763732;-0.5119572366180289;-0.38047867529798207;2.1019928751067205;0.23285046153285904;0.516937829548187;-0.35641908510341125
A;46.9;2.1835635873616095;-0.520712122520564;-0.4937493489688469;-0.37501161852291975;2.125591088622663;0.23685637673773563;0.5570940268850606;-0.349689355037329
A;47.0;2.2126052775667517;-0.5218895986270109;-0.4650912728542931;-0.3701318901357018;2.127083189479066;0.2394467092057777;0.5929171237088067;-0.34369107150929423
A;47.1;2.2324429504820547;-0.5237484620167248;-0.4286767583791642;-0.36796743065165316;2.113754383108308;0.24080917024427606;0.6245053157179594;-0.3383517351238581
A;47.2;2.243980836702482;-0.5262277845015007;-0.38545854911674216;-0.36705766549257834;2.0893423554659556;0.2410702050645881;0.6522984765129749;-0.33360436870190213
A;47.3;2.2476472817431556;-0.5293027950154219;-0.3358377056200448;-0.3657566569377195;2.055232007849032;0.24030028997031572;0.6765870664175342;-0.32940889383816696
A;47.4;2.2452166321755893;-0.5328485731703534;-0.2817011677741803;-0.3614397139969254;2.0181062116957627;0.2387325851235893;0.6981418074329735;-0.3256408746987578
A;47.5;2.238402145120169;-0.5367467723234736;-0.22481171150375268;-0.3512903028271097;1.9843615716564784;0.23659671523459913;0.7177610219816923;-0.32217637214971795
A;47.6;2.227773939810765;-0.5409136429111641;-0.16647725808319525;-0.33686178743734096;1.95354406851094;0.23391210116433392;0.734978943339673;-0.31902449078354955
A;47.7;2.2138861980044755;-0.5452502504945951;-0.10827603041868095;-0.3207036147714657;1.9240277306016722;0.23067222240845275;0.7490267704625921;-0.31621611518071013
A;47.8;2.1966535914220255;-0.5497334779908076;-0.05053481044365338;-0.3046444501745471;1.8936221123497745;0.22683776418629265;0.7594478364551449;-0.31378862806700525
A;47.9;2.1758484313602846;-0.5543457217253973;0.006515880348866077;-0.2907640270643501;1.8592554158464374;0.22234557095130292;0.7656618519287921;-0.3117933644605486
A;48.0;2.152830884139048;-0.5589486494765357;0.06066602490389972;-0.2791250514356429;1.8221742424520322;0.2173149223922728;0.7674793329622638;-0.3101893724190319
A;48.1;2.129100744565953;-0.5634076243313366;0.10977072617723671;-0.26904142927667607;1.7847706381618416;0.21190281205391237;0.764991687194744;-0.3089126401066551
A;48.2;2.105967937919054;-0.5675715586164181;0.15150079592008314;-0.2606839948919042;1.7473597255097992;0.2062002437385857;0.7577764189426865;-0.3079376072240603
A;48.3;2.084730795556583;-0.57129709109158;0.18362203818010592;-0.2540992663427799;1.710382038478592;0.2003067053414469;0.7455015736910404;-0.3072343492109244
A;48.4;2.065178696034245;-0.5746223094961618;0.20684754231215496;-0.24927026746528025;1.673994970109277;0.19424804950745944;0.7285800643414184;-0.30679454992988475
A;48.5;2.046556435790155;-0.5776377720201502;0.22282130780781184;-0.24622066691525646;1.6378736692399727;0.18800578233257603;0.707530565477505;-0.30662603203183636
A;48.6;2.0286281120232896;-0.5804127940172528;0.23255716466482657;-0.24476181427436128;1.6026513202437584;0.1816426772315225;0.6831090462566909;-0.30670342271452355
A;48.7;2.0109652059268477;-0.5830411984864377;0.23747473927234708;-0.24459598721779852;1.5689540689940884;0.17521411537555842;0.6561923072018452;-0.3070026766945766
A;48.8;1.993158582997415;-0.5855509639274583;0.23840844306810283;-0.24544348527941295;1.5362615348813087;0.16869137799043266;0.6269247996825946;-0.3075342455319152
A;48.9;1.9749932867308253;-0.5879466406814906;0.2357916408998717;-0.2470550235152853;1.5039702832265682;0.16205461284743272;0.5953411993181117;-0.30830602059409706
A;49.0;1.9556910937878982;-0.5902964152503216;0.23118901022491478;-0.24896685942982888;1.4713076457451812;0.15525132632432914;0.5617373899603635;-0.30933653234781744
A;49.1;1.9344851213361949;-0.5926633870409734;0.22611347971825158;-0.2507326091730091;1.4374479370311768;0.14822450208555615;0.5263646925662346;-0.3106451384192912
A;49.2;1.911547399268306;-0.5950836557276649;0.22082424828748426;-0.25231243482499455;1.402683955806559;0.14107497796473467;0.4898919608576886;-0.3121937996881581
A;49.3;1.8872243664113117;-0.5976011769124021;0.21547278970203187;-0.2537323409088561;1.3675882502694527;0.13394964014310062;0.45321146618304375;-0.313928021987504
A;49.4;1.8618965927119326;-0.6002093843375729;0.20978207819196903;-0.25509106149425076;1.3325271623593196;0.1269366177443363;0.41672076713010675;-0.31581011128978
A;49.5;1.8360478773334243;-0.6028974884687059;0.20331981035815438;-0.25653473131534277;1.2979583419888918;0.12013886948686192;0.38084246939413013;-0.31779672519213875
A;49.6;1.809588595208135;-0.6057338559446919;0.19701416488251677;-0.25785168568333017;1.2638926505006722;0.11364452598407837;0.3464388055997105;-0.31985486074597347
A;49.7;1.782286480798703;-0.6087832421698387;0.19196842084104215;-0.25877094685616964;1.2301755498384317;0.1075078241415941;0.31425214215575537;-0.3219621235423098
A;49.8;1.754148932512333;-0.6121236735324445;0.18898234674582692;-0.2591265694603857;1.1969474209714939;0.1018453692888901;0.2852530386323835;-0.32407618647257586
A;49.9;1.7251749295780172;-0.6158269909143819;0.18886869231242098;-0.25874907045760853;1.1643277119496744;0.09676353423177986;0.2603629173299833;-0.3261576747981252
A;50.0;1.695492332005756;-0.6198402263901066;0.19141552647916793;-0.2576865598075191;1.1323657509905232;0.0922362784343207;0.23938189948062139;-0.32820060193364675
A;50.1;1.6653101382465323;-0.6240763665149416;0.19598620333307348;-0.25608483787452574;1.1011538946140789;0.08820781843299486;0.22178040148440026;-0.33020613896051465
A;50.2;1.6347273780858824;-0.6284579594281823;0.20246654066632797;-0.253964452300111;1.0706346696802918;0.08461466961126263;0.20719693305027143;-0.3321804024356041
A;50.3;1.6038528527181146;-0.6328905662971778;0.21061199291787602;-0.25137378362794305;1.0407343121938837;0.08137312859162193;0.19510958190809014;-0.33413448421965164
A;50.4;1.572868418712229;-0.6373364076122812;0.21993377444167272;-0.24843238095474351;1.0116243805017682;0.07847390341426852;0.18528982028156804;-0.33605957810895326
A;50.5;1.541953014456249;-0.641775001565291;0.2300782638187968;-0.24523316404047169;0.9834923224094538;0.07592610363622576;0.17766059571471082;-0.33794354414533423
A;50.6;1.5113191380556596;-0.6461397743210178;0.24026544236929492;-0.24196239561412636;0.9565091306062037;0.07369164744503465;0.17172758271587796;-0.3397817041799769
