Condicao;Trial;Tempo_s;Ch1_HbO;Ch1_HbR;Ch2_HbO;Ch2_HbR;Ch3_HbO;Ch3_HbR;Ch4_HbO;Ch4_HbR;Ch5_HbO;Ch5_HbR;Ch6_HbO;Ch6_HbR;Ch7_HbO;Ch7_HbR;Ch8_HbO;Ch8_HbR
A;1;-20.0;-0.5926313111956221;0.20402414340956332;-0.4461823418600286;0.23828563284815507;-0.235039003253533;0.10819354372927403;-0.34655162854945853;0.17119552432566776;-0.398116234798394;0.05858802075663316;-0.3520391768992237;0.18442638262877065;-0.6264180763189913;0.19647813795878877;-0.7294412583443526;0.14264052741816746
A;1;-19.9;-0.5923230303911202;0.20450111403828553;-0.4494702427629793;0.23700051869067362;-0.23483749082904737;0.10649359646328183;-0.34656910567801624;0.17140010815570417;-0.39892134015926395;0.05782502965978953;-0.3539953321223219;0.18658943604028977;-0.6303266384486141;0.1953884451814245;-0.7293323569560215;0.1447383845547754
A;1;-19.8;-0.5917905922178095;0.20484164618241163;-0.45266753040010954;0.23593000922240215;-0.23466057267045493;0.10483506617272909;-0.3464353941468721;0.17172892400347894;-0.39964065612247524;0.0571072628155509;-0.3557041412316977;0.18879617969480833;-0.6341475862113004;0.19446118950724234;-0.7290639232518163;0.14704183709534568
A;1;-19.7;-0.5910130693962001;0.20503671661073763;-0.45577094380027283;0.23511151141484676;-0.2344989136332849;0.10323105500805063;-0.34611949505474193;0.1722000238333452;-0.40025238070004043;0.056448802308407764;-0.35710993119828505;0.19105785969277722;-0.6378523590735625;0.19372318877303396;-0.7285987801919669;0.14957594946842567
A;1;-19.6;-0.5898655141817972;0.20502128578389023;-0.4586852875328873;0.23463211604284684;-0.23429544880775133;0.10171544158941082;-0.34555595951650453;0.1728443924059775;-0.40067237010962486;0.05588322739172913;-0.3581048081258844;0.19335143860629955;-0.6412790958438039;0.19321878169579243;-0.7278350018481312;0.15237031047913874
A;1;-19.5;-0.5882360598950456;0.20473416796403265;-0.4613135408903446;0.23455832009602995;-0.23399495267899795;0.1003164086853694;-0.34469508962613826;0.17368320197752762;-0.4008246712033561;0.05543936940563743;-0.3586083152030879;0.19564911197014023;-0.6442714059438179;0.19298101834381187;-0.7266909266169979;0.15544002493727138
A;1;-19.4;-0.585978955747338;0.20410561374783898;-0.46355944527662274;0.23500055569972922;-0.23353443000865148;0.0990735323647316;-0.34345193067940105;0.1747575641869865;-0.40061430224424477;0.05515517985647733;-0.3584818865694501;0.19793092084054642;-0.6466550806910094;0.19306154957621802;-0.7250377370199468;0.15882714767269412
A;1;-19.3;-0.5829607959981118;0.20306960694564458;-0.4653307647848255;0.23605767325051952;-0.23285487968270147;0.09802358062932282;-0.3417509666123397;0.1761033783492736;-0.3999525543261857;0.05506608311958239;-0.357600875546801;0.20017607308563257;-0.6482657563554026;0.1935081728753656;-0.722758774194542;0.16256799244147224
A;1;-19.2;-0.5792495435844156;0.2016522630517037;-0.4666501861362917;0.23766709787597762;-0.2319708441675754;0.09714976379854434;-0.3396363459017335;0.1776945819748157;-0.39887217648023743;0.05516027532146861;-0.35603732934026944;0.20238854946284413;-0.6491435314172431;0.19429559268171825;-0.7199192902539124;0.1666273151176525
A;1;-19.1;-0.5749657909184798;0.1999078646595609;-0.4675781610326357;0.23972786906641375;-0.23091738436183107;0.09642055621260326;-0.3371789395246916;0.17949119354826104;-0.39743994427606033;0.055412469045439394;-0.35390937176760495;0.2045826655864813;-0.6493891069892985;0.19537748180551429;-0.7166277998741624;0.17095387470836076
A;1;-19.0;-0.5702272958647239;0.19787471370233822;-0.46815050474278763;0.2421319189929645;-0.22972593042917033;0.09580927675238282;-0.3344618074304444;0.18144666376006668;-0.39571214678982436;0.05580216701562346;-0.3513439047232527;0.20675804978249612;-0.6490805124657442;0.1967178936738847;-0.7129997310931477;0.17549184533726736
A;1;-18.9;-0.5651797867439621;0.19560409025919556;-0.46841884804163136;0.24474801595704632;-0.22843787235062507;0.0952816040965514;-0.3315850480275957;0.18350536831728537;-0.393762079090914;0.05630203941175971;-0.3484960655795071;0.20891735542067913;-0.6483239761686805;0.19826980571429775;-0.7091758671549595;0.18017451344738067
A;1;-18.8;-0.55986559489528;0.19312380181121513;-0.4684139820573012;0.2475418611739566;-0.22706184290072784;0.09482352649698012;-0.3285662238207028;0.18565345907588116;-0.39161570149280855;0.05690074686213542;-0.345402319056916;0.21107063124508763;-0.6471562897932976;0.20000605130515225;-0.7051876524928922;0.18497976019050055
A;1;-18.7;-0.5543018379262366;0.19044932998625264;-0.4681528532614898;0.25050064903701896;-0.22559813282996188;0.09442846054198917;-0.32540771108646904;0.18788482749234658;-0.3892832092419827;0.057593041735493955;-0.34207224965196215;0.21322388251993551;-0.6455902503424866;0.20191020625692158;-0.7010422912504879;0.18989599383141575
A;1;-18.6;-0.5485725761601019;0.18763134626964328;-0.4676935317419275;0.2535559176482729;-0.2240696233878925;0.09406987432367941;-0.3221501354648515;0.19017344204079478;-0.38681770300153673;0.05835662295092625;-0.33858428279747343;0.21539512495726232;-0.6437062852688875;0.20393545078643438;-0.6968078522082868;0.19488395354571608
A;1;-18.5;-0.5427547141718652;0.18471873180213683;-0.4670929525892511;0.2566460219023181;-0.22249739994306417;0.09372268227509206;-0.31882867287567684;0.19249577538488793;-0.38426911262500774;0.05916998531852613;-0.3350083667218806;0.21760202464660505;-0.6415813131901542;0.20603626981049894;-0.6925445000060328;0.19990769608439374
A;1;-18.4;-0.5369402068745481;0.18172875020212498;-0.46636550687249567;0.259685967530801;-0.22090599429739477;0.09337232480898994;-0.31551515498894567;0.1948107984005003;-0.3816717487962311;0.060021627463885174;-0.3314400822719943;0.21983198333458986;-0.6392654708778203;0.20819768306409303;-0.6883409061655765;0.2049254918806218
A;1;-18.3;-0.5312436168377408;0.17867797955771492;-0.4655215553098575;0.26256713180215163;-0.21932604623001417;0.0930021784717443;-0.31230392195478807;0.19706638510927732;-0.37906609166920724;0.060898932699907427;-0.32800345607062376;0.22206616618848418;-0.6368157570459063;0.21040575529661742;-0.6843118971737105;0.20988474249274702
A;1;-18.2;-0.5257017929954069;0.17556554803786995;-0.46455682960305467;0.2652527048663549;-0.21776540615902285;0.0926094541770972;-0.3092289806110502;0.1992397451066581;-0.3764591532944763;0.061798999060215465;-0.32473543922593073;0.22428805518661488;-0.6342428845641468;0.21265849818735472;-0.6804918871129981;0.21476614444627762
A;1;-18.1;-0.5203509547755134;0.17238657381018108;-0.46346242479876665;0.26770594609849985;-0.216232114801036;0.09219312195341267;-0.3063264739244005;0.20130707192599484;-0.37385526725609;0.0627201953620542;-0.3216725214544516;0.22647753708529983;-0.6315544428012458;0.21495796698568936;-0.6769154376114885;0.2195512787900582
A;1;-18.0;-0.5153142124863779;0.16918001457010723;-0.4622720778540881;0.26981042412814116;-0.21475720193837233;0.09172668139089701;-0.3036861312984467;0.20321803411002248;-0.3713111349780007;0.06364174317852545;-0.31895095636528303;0.22863164495587718;-0.6288268560560706;0.21726657247232817;-0.6737017777480023;0.22417724602287414
A;1;-17.9;-0.5106990443018908;0.16598858687992113;-0.461024066977906;0.2714637664852142;-0.21336630141486168;0.0911832208298975;-0.3013818495632732;0.20492976479151892;-0.36888136911356284;0.06454214289450011;-0.3166911223016866;0.23075343407602222;-0.6261322509800316;0.21954077567955643;-0.670952964034762;0.2285851561340042
A;1;-17.8;-0.5066498276866094;0.16284934286304065;-0.45975240623704394;0.2725336259158353;-0.21210031527673756;0.09053622457825394;-0.2995221696635877;0.206382984414196;-0.36662801495421427;0.06539972471612465;-0.3150471099536194;0.23283282348003898;-0.623562285044474;0.22174927271436573;-0.6688080518770168;0.23270917676751157
A;1;-17.7;-0.5032985989364116;0.15979923194332724;-0.45848926597591166;0.27289674868960034;-0.2109949634040813;0.08975991965722496;-0.29820591716134537;0.207523148316342;-0.36460929815487475;0.06619351712352284;-0.31416309173227486;0.23486207709694717;-0.6211997406186986;0.22385851650675015;-0.6673946114206801;0.23648527562501842
A;1;-17.6;-0.5005878794017651;0.15683318780469557;-0.4572286157058709;0.2726006601019244;-0.21002863241582936;0.08886046795353142;-0.29738710442747607;0.20836558882595346;-0.36280295607086543;0.06692535566062396;-0.3139775111914602;0.23683865684173533;-0.6190111686644038;0.22586002215852652;-0.6666485192039673;0.23992630580679064
A;1;-17.5;-0.4984118199582195;0.15393067510847125;-0.455953045057786;0.2717404075046699;-0.20916831852700746;0.0878550238339626;-0.2969836589570374;0.2089432794511814;-0.36116356263491944;0.06760417840131527;-0.3143702983074368;0.23875701962496;-0.6169368252289811;0.22775924658833047;-0.6664544770156535;0.24307058232319
A;1;-17.4;-0.49666405484775833;0.15108754026538262;-0.4546474507427085;0.27039655165596876;-0.208369118125745;0.08675159019125633;-0.29691138994177546;0.20929034738859187;-0.359653963416271;0.06823488594786653;-0.315244921793556;0.24062625986100716;-0.6149022375772546;0.22953598925647523;-0.6667052420998623;0.24593423450120033
A;1;-17.3;-0.4952112934618187;0.14829413006975312;-0.4532918983635703;0.2686739791796846;-0.20757818440913844;0.08556255493253317;-0.2970654039132157;0.20945098392948225;-0.3582259713280802;0.06882536749885393;-0.31647575398272476;0.24245641685420694;-0.6128173213484951;0.2311732242173563;-0.6672662744896796;0.24854431945510935
A;1;-17.2;-0.49402225284327805;0.14553896695541857;-0.45188443989365545;0.26661103913812534;-0.20679321364278103;0.08429816829833392;-0.2974202545983742;0.20943177449078343;-0.356861910152908;0.06937738721994702;-0.31800890717651153;0.24423261107332284;-0.6106801812001512;0.2326814898644849;-0.6680908909195988;0.2509226690824602
A;1;-17.1;-0.49308971783325717;0.14281650140568125;-0.4504267596718474;0.26422348314113187;-0.20601850835952895;0.08296458752677793;-0.2979691922054286;0.20923075374706324;-0.35555431934750814;0.0698899361919576;-0.3198185976071395;0.24593992963414113;-0.6085018387492527;0.23406762405771975;-0.6691573772997286;0.25307985318664983
A;1;-17.0;-0.492341349048397;0.14010357593528067;-0.44891004571169724;0.26158936199613425;-0.2052422425024556;0.08158014985986295;-0.2986558664660999;0.20886924319125466;-0.3542675987666879;0.07036976963469677;-0.32180197863136595;0.24756179216022733;-0.6062607801557442;0.23535157501587678;-0.6703763576037023;0.25505908445664627
A;1;-16.9;-0.49171180659601;0.1373774752675896;-0.4473266905444273;0.2587822293775117;-0.2044560344528783;0.08016307842972559;-0.2994291566172711;0.20836647025947164;-0.3529684134729276;0.07082322262894891;-0.3238615598680905;0.24908050190428455;-0.6039414799515059;0.23655506266993997;-0.671664396450649;0.256902934971885
A;1;-16.8;-0.4911184645629776;0.13464802070007753;-0.4456612751000044;0.25585021668420405;-0.2036142133589749;0.07871332870586034;-0.3002245856600956;0.20774915898220536;-0.3516330857318426;0.07125128901802569;-0.32594627026978706;0.2505127577597479;-0.6014692945927171;0.2376420800765504;-0.6729457222461548;0.2586018233327416
A;1;-16.7;-0.4904546530711107;0.13193080320471307;-0.4438936637321689;0.25285027147043104;-0.20265440616084263;0.07722787294310596;-0.30095953925309615;0.2070526829872561;-0.35023366568375636;0.07165507661538051;-0.3279988011100681;0.25188596295851173;-0.5987418779702685;0.2385607100086733;-0.6741285225703955;0.26013830023172213
A;1;-16.6;-0.48969168229959603;0.129242085840358;-0.44201949272755137;0.24979170102332393;-0.20155384329732584;0.07570269999828039;-0.30160925713348696;0.20628611952188702;-0.3487658146042847;0.07203111734556522;-0.33001356133608617;0.25321086935661885;-0.5957266856482084;0.2392808668566775;-0.6751849243911687;0.26149256709250723
A;1;-16.5;-0.4888010000018044;0.12660184772098315;-0.44003354063213074;0.24667969183687566;-0.20028666066176548;0.07413186867785626;-0.3021491299686243;0.20545903722126724;-0.3472268860588823;0.07237537945163197;-0.33199198566727617;0.2545019304722258;-0.5923861310621685;0.23976707033736266;-0.6760899729469481;0.26263894052257
A;1;-16.4;-0.4876636092617366;0.12400817604455705;-0.43791922447268306;0.24359901009879215;-0.1988014991243361;0.0725218986514724;-0.3024876707174462;0.20461012676843282;-0.34557888335242204;0.0726922328639148;-0.33383605873678945;0.2557725758517009;-0.5886363070503711;0.23999256926080426;-0.6767304998516872;0.2635913460102066
A;1;-16.3;-0.4861749973977476;0.12145326117878863;-0.43566545560454806;0.2406330827565588;-0.19706057708578584;0.07088244221536932;-0.30254391504001976;0.20377298988143266;-0.34378601397081887;0.07298605067101516;-0.33544532036728203;0.25702739453007606;-0.5844171084390926;0.23994470577975013;-0.6770008221563;0.26437448481868175
A;1;-16.2;-0.48419587792264185;0.1189407798112101;-0.4332468219550325;0.23787234031571947;-0.19499638772222738;0.06921807366428023;-0.30221175579763493;0.2029951481982759;-0.34180569482090917;0.07326256920315455;-0.33672121095617147;0.25829097110799815;-0.5796142788395819;0.2395842999281923;-0.6767764603290374;0.26499251836255766
A;1;-16.1;-0.4815971007026709;0.11647270026252787;-0.4306423091988183;0.2354034897001096;-0.1925490109298078;0.06753386601554734;-0.3013925209115573;0.20232046454008312;-0.33959843037579596;0.07352681855837506;-0.3375676686943203;0.2595839562089024;-0.5741280337068169;0.23887789481302146;-0.675940307596389;0.26545367133321607
A;1;-16.0;-0.47843929711430455;0.11405335727884713;-0.4278730996110056;0.2331992272978325;-0.18975600148211313;0.06583209879144292;-0.30012656192713916;0.20172878330684751;-0.3371829940211306;0.07377194127689446;-0.33801078036544485;0.26088664733126343;-0.5680327202411739;0.23784392412444877;-0.6745282886300066;0.26576229995121414
A;1;-15.9;-0.4748333398058424;0.11169143073185062;-0.4249673243018872;0.2311974615552801;-0.18667640984933342;0.06411308263812288;-0.29849135767061696;0.2011844582440987;-0.3345941491446869;0.0739883651213935;-0.33811791947559033;0.26217329504251996;-0.5614391538983199;0.23651044598513904;-0.6726204363083426;0.2659143688722727
A;1;-15.8;-0.4708790793379558;0.10938311501981612;-0.42196574892810546;0.22935756999210577;-0.18337853350292121;0.06238084990861914;-0.29655610805887456;0.20065157650440524;-0.3318627520041204;0.0741658549391957;-0.3379213158004264;0.26340657946600565;-0.5544818992803959;0.23491821436235982;-0.6702800638688684;0.2659324570599675
A;1;-15.7;-0.4667028640340565;0.10712455847807867;-0.418915106476323;0.22762343823140618;-0.17994469885108977;0.060639268535727986;-0.2944094602875875;0.20008552483275377;-0.32902772675388725;0.07429268854395144;-0.3374697721473181;0.2645435278853103;-0.5473203584154547;0.23311606611202107;-0.6675918883698095;0.26583939327088624
A;1;-15.6;-0.46234359666131475;0.10492893479193466;-0.4158176930265043;0.22596878212717852;-0.17638978900759383;0.058888684660100665;-0.2920773732141022;0.19947886026195816;-0.3261018453369271;0.07436578512283898;-0.3368006193076756;0.26558239990473;-0.5399808041865333;0.23110928061985936;-0.6645859439080546;0.26562114219465105
A;1;-15.5;-0.4578137172200014;0.10280868284107125;-0.41267049717180093;0.22438319557433495;-0.17271553737240453;0.05712968031753718;-0.28956687446442864;0.19883319146080636;-0.3230902013287569;0.07438376454984308;-0.33593431952470976;0.2665272731674495;-0.5324663920870059;0.22889704198976757;-0.6612725399093273;0.2652654404274237
A;1;-15.4;-0.45319584628967835;0.10077933418534135;-0.4094830681221673;0.22281217703835177;-0.16895715927669208;0.055361685058011645;-0.28693561011365;0.19812743545193268;-0.32001883891261507;0.07434132078546973;-0.3349402617743644;0.267369744088926;-0.5248377109242046;0.22649377838391116;-0.6577169476818705;0.2647531434176229
A;1;-15.3;-0.4485652807437255;0.098856987208086;-0.40626156306955785;0.2212042791331923;-0.16514495531395035;0.05358405205718775;-0.28423631943405603;0.19734372835767022;-0.3169116401469836;0.07423406242780306;-0.3338861381582019;0.26810456352261713;-0.5171455176880855;0.22391201414284367;-0.6539807015060184;0.2640637175139249
A;1;-15.2;-0.44398314370109926;0.0970309675107397;-0.40304733117737435;0.21954754577248403;-0.16133501085100832;0.05180172552159412;-0.2815115425583796;0.19645801461790136;-0.313789648732536;0.07405363977871904;-0.33276899224385925;0.268698320424579;-0.5095072887606253;0.22119156131548978;-0.6500993568547857;0.2632357704088051
A;1;-15.1;-0.43952661227355705;0.09528260355384433;-0.3998974681965475;0.21783039692375805;-0.15760203054266242;0.05002123631734001;-0.2788150260539073;0.19543737941973438;-0.31067902937411773;0.07378917003697438;-0.331576091263873;0.26910439983200174;-0.5020797985536447;0.21838496495306758;-0.6461146844981425;0.26232532464876446
A;1;-15.0;-0.4352038497444042;0.09360382942762069;-0.3968324900940292;0.21606664648704355;-0.15396914038503873;0.04824775016159588;-0.27615235362419543;0.19427875619527102;-0.3075843264363538;0.07343765046641426;-0.3302840209405691;0.2693072931625782;-0.4949165890521128;0.21551768144583017;-0.6420282980078751;0.2613640269854005
A;1;-14.9;-0.4310186475297604;0.091983575418356;-0.3938755517719219;0.21427541885374257;-0.1504604382043393;0.04648694060109637;-0.2735263126105423;0.1929796198958531;-0.3045090073975558;0.07299610518366517;-0.32886107144107246;0.2692897202017095;-0.4880746775680054;0.21261758475071657;-0.6378380247165856;0.2603897185531432
A;1;-14.8;-0.42707669154238115;0.09041359687242512;-0.3910749041691144;0.21241654075673466;-0.1471524463604048;0.04474332024498917;-0.27101031458473734;0.19150209211810987;-0.3014865505463522;0.07245423273139284;-0.3273352734994841;0.26901160224830356;-0.4817039821960156;0.20973028387520376;-0.6336098416744873;0.25943358721468934
A;1;-14.7;-0.42347740682258816;0.08889176279729272;-0.38846672752367084;0.21044592276899543;-0.14411013817355212;0.043020515983610785;-0.26867330706485415;0.18981362676138858;-0.29854772961157217;0.07180385449871007;-0.32574641571366225;0.2684423749775995;-0.4759274643500744;0.20689289127281407;-0.6294086752068129;0.25851235558594565
A;1;-14.6;-0.4203339099468044;0.08740198252877285;-0.3861119022118782;0.20832564191250835;-0.1414225513714893;0.04132356050389685;-0.2665954635966834;0.18787070455658395;-0.2957295545321532;0.07103315581032987;-0.32411239427382466;0.26753282320922;-0.470923151308404;0.20416192082977602;-0.6253063809768244;0.25767368829635906
A;1;-14.5;-0.4177537805962439;0.08593046987699493;-0.38406531152858747;0.20601793994608508;-0.13917232177437633;0.039657335742181665;-0.2648527525319144;0.18563305937751773;-0.2930666516287115;0.07013160135477126;-0.3224537781454657;0.2662383531011967;-0.4668542649459084;0.20158894486041712;-0.621370925860881;0.2569588364481268
A;1;-14.4;-0.4156799409368208;0.08448866354983231;-0.3822927278402979;0.20354704484075414;-0.1373190953212866;0.0380245295770818;-0.26340563885635504;0.18313197881614318;-0.2905408751005858;0.06910772751092065;-0.32076467322320124;0.26458779608605454;-0.4636368154312507;0.19916233594855415;-0.6175724495812309;0.2563507677894403
A;1;-14.3;-0.4140040751432066;0.08309148409154643;-0.3807382375005943;0.2009594010132898;-0.13578876058663525;0.0364271472507971;-0.26217995031095054;0.18041919282447383;-0.28811870577371224;0.06797542673139034;-0.3190238093689093;0.2626289267581994;-0.46112146254163466;0.1968560905440424;-0.6138525217256046;0.25582355043680405
A;1;-14.2;-0.41265297535925427;0.08176106510606784;-0.3793450352703225;0.19827694095384096;-0.13451806371687347;0.03486739551482021;-0.2611222835129636;0.17753671854552033;-0.28577381426321047;0.0667474121345002;-0.31723866006177204;0.2604072604614309;-0.45917003149171975;0.19463737743648446;-0.6101661057272612;0.2553321149881276
A;1;-14.1;-0.4115305510832661;0.08052297844229894;-0.3780434167864435;0.19552980686307642;-0.13342631393378745;0.03334710335611124;-0.2601633086313653;0.1745366473646941;-0.2834724936270323;0.06543925038794729;-0.3154137623155604;0.25797898342025505;-0.457608853670588;0.19246445124015166;-0.6064550383773994;0.2548228697482755
A;1;-14.0;-0.41057513715439065;0.07937660098247479;-0.3768127986824119;0.19274955797872861;-0.13248111099173343;0.03186808905659699;-0.25926513937260065;0.1714471182492443;-0.2811983960644717;0.06405905027619152;-0.3135253970690277;0.2553655597233986;-0.4563759933253131;0.19033776607990882;-0.6026951891719401;0.2543017612373464
A;1;-13.9;-0.40974886842477964;0.07831735432095055;-0.37564514447422326;0.189957775705639;-0.13166719689234796;0.030432287655213663;-0.25840662655057933;0.16828575192248074;-0.27894250693787903;0.06261253107841824;-0.31155404691498134;0.2525783162035422;-0.4554429277749801;0.18826492353291346;-0.5988757293470917;0.25378176547982045
A;1;-13.8;-0.4089476395888214;0.07734865455991002;-0.3744996155772675;0.18720468552770386;-0.13092329732606167;0.029041155541310815;-0.2575208104826947;0.16509856130106648;-0.2766756663952439;0.061112304496226066;-0.3094657969615069;0.24965569965696588;-0.45469140235037475;0.18623566790342672;-0.5949499917409504;0.2532603222679981
A;1;-13.7;-0.40807124017505725;0.07647179604668386;-0.37333912313622264;0.18453893485788742;-0.13019187656342268;0.027695892326537574;-0.25654413685139765;0.16192916978168537;-0.274370288890351;0.05957058810238447;-0.3072259560121253;0.24663370425510767;-0.45401096405863495;0.18424174295091733;-0.5908745804748587;0.25273820615769393
A;1;-13.6;-0.4070945488148565;0.07570492108995097;-0.37212371227965413;0.1819565905032352;-0.12943727280286055;0.026398619479934382;-0.2554552010289681;0.15880011885222878;-0.2720124797201908;0.05799710845138062;-0.30485955480783034;0.24354336531955667;-0.4533102880438138;0.18225299197579803;-0.5866257597445683;0.2521697619707659
A;1;-13.5;-0.4059981194587863;0.0750742836339624;-0.3708026110144278;0.17944549643785246;-0.1286179807223018;0.025151856725710076;-0.2542330436106024;0.15573549866203074;-0.2695870904213251;0.05640261759068199;-0.30240729805206623;0.24042192392367046;-0.45247917173853125;0.18022825854790847;-0.5821762696931438;0.2514901411624697
A;1;-13.4;-0.40479060732175043;0.07458668378157629;-0.3693620289143258;0.1769886358671049;-0.12772753724404318;0.02395676960122639;-0.25288310232234945;0.1527400813694464;-0.2670928688180769;0.05479281568204453;-0.29989335760417646;0.2372817566752099;-0.45148740745586213;0.17815333345831785;-0.5775274786959299;0.25067483985190187
A;1;-13.3;-0.40349093240031486;0.07424980123060143;-0.3677894316011372;0.17456216842166805;-0.12676344972912013;0.02281441723819544;-0.2514170549401644;0.1498150323238545;-0.2645307579477194;0.05317295512998399;-0.29734843765155894;0.23413367178262678;-0.4503099092953784;0.17601187035219956;-0.5726841623606189;0.24969522858902682
A;1;-13.2;-0.40203027733343877;0.07408624249172657;-0.36602343115859703;0.17218518102261537;-0.1256618229148465;0.021727220643252387;-0.2497830201931075;0.1470021826943757;-0.26187435466527553;0.051556594065904626;-0.29478704853111815;0.23102576573466305;-0.4488024177616152;0.17376970151190374;-0.5676024050569799;0.2485012203647603
A;1;-13.1;-0.400328816232955;0.07411293726218204;-0.364007481577584;0.1698864882341331;-0.12435885107998956;0.02069718365770079;-0.24792437594903127;0.14434520246792193;-0.25909657177357204;0.04995710848455026;-0.2922108135489747;0.22800428147898977;-0.44682708827312556;0.171401345386065;-0.5622393636246574;0.24705720326475955
A;1;-13.0;-0.39833050153115224;0.07435739182927437;-0.36167541224963884;0.16767242946307181;-0.12278998639152228;0.019726322926526763;-0.24579510059725784;0.141882417413969;-0.25617173876981525;0.048388494111642366;-0.2896488814174205;0.22511953717441635;-0.44423027753285993;0.16885943949340732;-0.5565492563722341;0.24529555879255538
A;1;-12.9;-0.3959771961326348;0.07484443699815779;-0.3589641958179435;0.16555313239555502;-0.12089276609761157;0.018816563972233524;-0.24334885769336978;0.13965196174133832;-0.25307487787768856;0.0468641957460596;-0.2871257060010217;0.22241999708148263;-0.44086556273161914;0.16610254961001836;-0.5504890440437933;0.24315634958936894
A;1;-12.8;-0.393275634144163;0.07555375473117465;-0.3558977227377742;0.16352756359280907;-0.11868662182453527;0.017966503595109096;-0.2406013418898194;0.1376474643743748;-0.24981411386864139;0.045385742030897624;-0.28462746027681884;0.21989611579972124;-0.436775049358606;0.16315462407645054;-0.5440856466412365;0.24067557247383808
A;1;-12.7;-0.39026360028826534;0.0764527873314993;-0.35252678749048805;0.16158190157030328;-0.11621868114382217;0.017173279497586513;-0.23759352421187163;0.13584459041384545;-0.24640930442768827;0.04395085700106094;-0.2821366912827399;0.21751971103327516;-0.4320590555936832;0.1600520291412897;-0.5373877964751426;0.23790979076609675
A;1;-12.6;-0.38693250684497027;0.07751208212253147;-0.3488845969563865;0.15973594964422677;-0.11351341568287587;0.01643593027672008;-0.23433471464996103;0.13424008440590285;-0.24286957204882498;0.042559039472563676;-0.2796182506584888;0.21527580369323296;-0.4267838404643811;0.15684540553500392;-0.5304308237624022;0.2349271666638768
A;1;-12.5;-0.3832826527549589;0.07869565175644411;-0.3450166770370817;0.15800806743422635;-0.11060666097882255;0.015752899636222395;-0.23084279257657592;0.13282435396785086;-0.23920871385702824;0.041208080969279415;-0.2770314460670873;0.21314127510301617;-0.4210420303978788;0.15359447184678165;-0.5232599116308698;0.23180948440639693
A;1;-12.4;-0.37935406855299725;0.07998562818897748;-0.3409503685230799;0.15637015553950606;-0.10752697351203366;0.015120905499146353;-0.2271524735932866;0.13157643843631295;-0.2354400103225096;0.039898578354619296;-0.27438378796546203;0.2111024317219572;-0.4148808208816064;0.15030081560619246;-0.515903130592485;0.22856951595710573
A;1;-12.3;-0.37517805366197265;0.08137034290456446;-0.3367008074035329;0.1547968450377093;-0.10429197847146199;0.01453715383850085;-0.22328955937193928;0.13048123953609814;-0.23157230937367146;0.0386323161914337;-0.27168807577998777;0.2091533580152234;-0.40832266089656155;0.14695819479265948;-0.5083789583015061;0.22520764914124713
A;1;-12.2;-0.3708170190112261;0.08282154845427891;-0.3323178417545911;0.15325040234665144;-0.10095157223805451;0.013996982895620569;-0.2193082475036583;0.12950439818269643;-0.22762825925981112;0.03740723769165566;-0.2689469919412435;0.2072655732293267;-0.4014608555663308;0.14357870217614144;-0.5007337341926696;0.22175462033527849
A;1;-12.1;-0.3663357600211139;0.08431221024303737;-0.3278497692118929;0.15169079739808922;-0.09755498632583581;0.013495571652643257;-0.21526327851364346;0.12861065945699934;-0.22363035074077864;0.03622122293671115;-0.26616629435204775;0.20541124864090943;-0.3943855522357884;0.14017061222964955;-0.4930120317181963;0.21823665158805072
A;1;-12.0;-0.3616972821365305;0.08582266751140466;-0.32330625203241503;0.15015774514648283;-0.09410464773390714;0.013033481697487304;-0.21113912870790763;0.1278120861463159;-0.2195784034459738;0.03507463494489649;-0.2633115802680539;0.2035901246651468;-0.38712136789831764;0.1367837945246011;-0.4852323464494832;0.21471238340150256
A;1;-11.9;-0.3568391833806439;0.0873311734822444;-0.3186940847414732;0.1487133141533561;-0.09059612263003203;0.012612473775377886;-0.20690505945320137;0.12713143633509283;-0.21546864439085844;0.03396786878337377;-0.2603323017478907;0.20180496023367844;-0.37969033874280367;0.13348668347752035;-0.47741282648394723;0.2112593728130716
A;1;-11.8;-0.3517276404766507;0.08882793171795678;-0.3140070219930191;0.1473877642775654;-0.08702007414738056;0.012232823701223694;-0.20254143107521827;0.12658163275027512;-0.21129628949559454;0.03290261974429942;-0.25721103853885285;0.20006457689642154;-0.37208222007099323;0.1303043735826912;-0.46955589714357604;0.20790584976065896
A;1;-11.7;-0.34631877412159806;0.09030462128059025;-0.30923404672810584;0.1462195778631541;-0.08336192922846486;0.011895361928234927;-0.19802096895555632;0.12618036421691414;-0.2070541486421149;0.03188061476762183;-0.2539271357299171;0.1983808883326441;-0.3642790393511728;0.12726534660599942;-0.4616603976637208;0.20468200573259088
A;1;-11.6;-0.34059772570105196;0.09173218655469872;-0.3044080698039622;0.14523447415350255;-0.07964356404906958;0.011598848017377428;-0.1933486604441912;0.12592733367627806;-0.20275159361807304;0.030900810732179096;-0.25044248798880364;0.1967397476323649;-0.35634703191391104;0.12442557509271435;-0.4537638709980385;0.2016604182346784
A;1;-11.5;-0.3345729163479181;0.0930815817510462;-0.29956826309127926;0.14443791132515393;-0.07589497797659561;0.01134061517619589;-0.18854466890208244;0.12581174649432736;-0.19840228030462903;0.029962013955412203;-0.24673082381324285;0.19512242636800625;-0.34836034168122776;0.12182629517142507;-0.4459067708506783;0.19890045674924917
A;1;-11.4;-0.3282079666882698;0.09432406382898506;-0.29474238408812603;0.14387839174285366;-0.07213183737614592;0.011120942536271272;-0.18359849979091614;0.12584257042031233;-0.19401231040875366;0.029061806588511985;-0.24274151951044498;0.19351761825206193;-0.3403834113255595;0.11954087991130757;-0.43812383910644215;0.19649018796198137
A;1;-11.3;-0.3214751787637091;0.09543186609139465;-0.28995975002984764;0.14359525182670696;-0.06837153930055528;0.010939459935334739;-0.17850517225161955;0.12602525574751455;-0.18958915437795376;0.02819809468410117;-0.23842960145612402;0.1919130981083601;-0.3324802773155131;0.11763445697257824;-0.4304499568406781;0.19450978543687647
A;1;-11.2;-0.31441355220166045;0.09640423653921948;-0.2852193874356068;0.14355101248926783;-0.06461928075624535;0.010791982510641063;-0.17328638005435248;0.126341704754231;-0.18513713908289553;0.027372642619289955;-0.23382734228932645;0.1903112054552034;-0.3246360067665872;0.11606695665584743;-0.422881624693491;0.1929219365949204
A;1;-11.1;-0.3070706237051377;0.09725004314888386;-0.28050628244704434;0.14369796927742273;-0.060872269003155566;0.0106742026708595;-0.16796235168106577;0.1267719724726244;-0.1806573895455852;0.02658736188084454;-0.22898506333123692;0.18872103034809573;-0.31680839609472766;0.11477494529142973;-0.4154003119211076;0.19166010158067515
A;1;-11.0;-0.29952071011250414;0.0979712484157349;-0.275827758556872;0.14395885402229425;-0.057143339682941274;0.010579144007321517;-0.16257919240793495;0.12728390609177875;-0.17616014805267888;0.025846358712898976;-0.22395727945680388;0.18714095055141566;-0.30898144837428543;0.11368483295473819;-0.4080056796709872;0.19065591770112666
A;1;-10.9;-0.29184851817162105;0.09857367383678906;-0.2711873895545036;0.14424512298075243;-0.05344412980163149;0.01049924758524945;-0.15718730561365568;0.12784153584197178;-0.17165548239309203;0.025154103038013353;-0.21880954867199076;0.1855709342255274;-0.30112918733047245;0.11270797322248427;-0.4006921008556148;0.18982427597881246
A;1;-10.8;-0.28406491979641135;0.0990620855237343;-0.2665716586484699;0.14455498970407765;-0.04976993519844619;0.010433322011085266;-0.15178303990636444;0.1284398103732065;-0.16714285604530588;0.024508241499046513;-0.2135609591787011;0.18401819479824777;-0.29323241948373013;0.11182785712368926;-0.39344662303372857;0.18914446062577905
A;1;-10.7;-0.27617225952662405;0.09943860149227479;-0.26197189840684487;0.1448963964658998;-0.04611769050521097;0.010380712599544317;-0.14635928219386862;0.1290771981190364;-0.1626227802059379;0.023905795391057083;-0.20822036199399196;0.18248765942311085;-0.28528352440805005;0.11104180953444587;-0.3862619893505723;0.18861093150990582
A;1;-10.6;-0.2681915720264696;0.09971411642681582;-0.2573642527795279;0.14525644015180594;-0.04247783533908844;0.010339773346152548;-0.14091401847587814;0.12974477079691393;-0.1580919474641167;0.023344704740888567;-0.20282219625447784;0.1809910993889261;-0.2772422547154427;0.11031232762655074;-0.3791130288448583;0.1881782824844489
A;1;-10.5;-0.2601397948429707;0.09990013253538255;-0.25272447582337776;0.14562771946959607;-0.038840179084614235;0.010309330067521216;-0.13544194637854456;0.13043561454539665;-0.15354695502125715;0.022822190712648904;-0.1973979214833248;0.17954022400590475;-0.2690705848848749;0.10960690047539634;-0.3719746019697592;0.18780529366054388
A;1;-10.4;-0.25209087643125194;0.09999526551375792;-0.24807650344989973;0.145932179892998;-0.03522485680951348;0.01028208741150305;-0.1299947603680085;0.13111877220388735;-0.14900407914174174;0.022342445078859186;-0.1919906176455708;0.17812584104345142;-0.260778183065419;0.10886405499567164;-0.3648615445281518;0.18743988290445612
A;1;-10.3;-0.24414262052393632;0.0999953475789761;-0.24345575658462337;0.14606259943716138;-0.031660280065890944;0.010248350447701782;-0.12464469996667837;0.1317528109873618;-0.14448446332467668;0.02191239871974826;-0.18665393915916528;0.17673380473280353;-0.25238071881483126;0.10800283949201228;-0.3577964791609558;0.18701554263801956
A;1;-10.2;-0.23634392408666027;0.09989837623241637;-0.23888710690456527;0.14597380015833217;-0.02816539334990331;0.010203364129700354;-0.11942609189339048;0.1323179429753294;-0.14000425559043173;0.021532617994668435;-0.18141000210844638;0.1753533251359949;-0.24390609789963325;0.10699568496984568;-0.3507985957698718;0.18651183543687155
A;1;-10.1;-0.22874825992230097;0.09970144640416478;-0.23440068888798216;0.14561494911521589;-0.024762125215113784;0.010141947705117893;-0.11437817473244394;0.13279277331697115;-0.13558171661188645;0.021204177828868964;-0.1762809163160597;0.1739712538722289;-0.23538833076085197;0.10581376972125733;-0.3438914646200413;0.18590856230238062
A;1;-10.0;-0.22143671758465722;0.09940526967597263;-0.23000860904472908;0.14490054119811635;-0.021465960454822408;0.010056285284963273;-0.10955361201170266;0.1331413651828668;-0.13122762131053278;0.02093178595663403;-0.17132170668027147;0.17258306304607185;-0.22681477780735726;0.10437717767044985;-0.33707556208565226;0.1851329025654227
A;1;-9.9;-0.21447351825184668;0.09901283035008168;-0.22571229021007078;0.14376710778889734;-0.018285856134076184;0.00994037650050128;-0.10498950167438892;0.13333454973512326;-0.126948077684645;0.020717785380936604;-0.16658080110468987;0.1711883009309343;-0.21816612124597068;0.10261885716263563;-0.33034285533150953;0.18412055300631325
A;1;-9.8;-0.20795767079580685;0.09852521760404587;-0.22153533875382792;0.14210564642521684;-0.015243405279926847;0.009784913685825458;-0.10075418971118566;0.13333074104653164;-0.1227591295158863;0.020569172603600805;-0.1621205188417516;0.16977798973107472;-0.20943681346595522;0.10044470511088521;-0.3237022988001117;0.18278739570161218
A;1;-9.7;-0.20197961834705058;0.0979432068178343;-0.21749714768927042;0.13981837849705414;-0.012357846757488744;0.00958143774325304;-0.09690903009090501;0.1330912925824923;-0.1186743228231677;0.02049190521154287;-0.15799844111072048;0.1683445444572369;-0.20061976602229947;0.0977683193865948;-0.31715943099386124;0.1810555913686569
A;1;-9.6;-0.19651618923793368;0.09727199081518334;-0.21359181424572427;0.13695461150296317;-0.009627594200404488;0.009333075619928799;-0.09342663535103135;0.13262694424520038;-0.1146958628757897;0.020476245558652018;-0.15419856782208186;0.16688769976979234;-0.19173952203362088;0.0946303818996248;-0.3107118412904981;0.17895726577183835
A;1;-9.5;-0.19151710512864906;0.09651904402708134;-0.2098125785721443;0.13359786996188427;-0.00704763257077623;0.009045974273406365;-0.09025953425129263;0.131962156981154;-0.11082576926673582;0.020508773722828444;-0.15068483274156996;0.1654069739951156;-0.18283553885739057;0.09110526767407645;-0.3043603427126751;0.17655410819842565
A;1;-9.4;-0.18692510417051977;0.09568596447344513;-0.2061346956493324;0.12984177414631803;-0.004606659657090617;0.008726271430758992;-0.08735288109840056;0.13111781113005794;-0.1070547806430362;0.020576050309899507;-0.14742320130062403;0.16390867284023436;-0.1739221737996388;0.08726253479908985;-0.2980870669961453;0.17390259593035706
A;1;-9.3;-0.18266629416401337;0.09477530670302059;-0.20252936756176965;0.12580132783539621;-0.0022901006024813597;0.008381838040141254;-0.08463882835559033;0.13012204685366768;-0.10337179439264155;0.020662364018474655;-0.14436905837085412;0.16240025441576567;-0.16501788473257406;0.08318990307513863;-0.29187254068497825;0.17107463054491756
A;1;-9.2;-0.17873390437774095;0.09379664654667108;-0.19900856523591948;0.12150037918117418;-0.00010241599363780551;0.008015129894376471;-0.08210580504533826;0.12898518851251373;-0.09978706523805414;0.02076099908516227;-0.14151061418287547;0.16087546402832764;-0.15616006805668903;0.07891682626363083;-0.2857287794969432;0.16809237153397927
A;1;-9.1;-0.17513484230952603;0.0927578802348088;-0.19558717236128764;0.11694396563378406;0.0019495964783917685;0.00762719863569572;-0.07975373353644155;0.127711351579332;-0.09631097619914541;0.020867767713153462;-0.1388444987242634;0.15932737580343215;-0.14738007322250368;0.07445621260238111;-0.27966785503303093;0.1649638445513646
A;1;-9.0;-0.17183946463201138;0.09167223224709087;-0.19227421059284744;0.11218594517478397;0.0038649227934506314;0.007222966532149044;-0.07755318533177835;0.12632186580945692;-0.09295421905327927;0.02097206511812999;-0.1363437422038114;0.157749849464226;-0.13872804342876943;0.0698655635255716;-0.27370341330318304;0.16173500418499653
A;1;-8.9;-0.16882138302982774;0.0905530456549597;-0.18908093321555164;0.1072746953784689;0.005641882662382969;0.0068071513738834355;-0.07547794832620536;0.1248374670890171;-0.08972794925112026;0.021064201238621294;-0.13398271197970146;0.1561361983382712;-0.1302537031521389;0.06519865723473428;-0.26785037215300544;0.15844851509724434
A;1;-8.8;-0.16603326011767816;0.08939407219448459;-0.18597762824471786;0.10228683835650809;0.007292329828700872;0.006384430745651315;-0.07348402149042066;0.12327042250564268;-0.08661472078095933;0.02113506461083947;-0.1317344903818718;0.15449519667510359;-0.12194963177246443;0.060504020152087;-0.262080866728299;0.15514332380505547
A;1;-8.7;-0.16341158725476213;0.08818490746479046;-0.18291914755636363;0.0973215514243626;0.008833939849081318;0.005960400627129658;-0.07151366764772948;0.12163435996260841;-0.08358858940599312;0.021173551002011237;-0.12956628491136968;0.1528407088020023;-0.11379609172072058;0.055840467432179075;-0.25635365092778084;0.1518672038329112
A;1;-8.6;-0.16093666568469356;0.0869199274739958;-0.1798890836220739;0.09241470957306186;0.010273221856083481;0.005537551652148309;-0.06954658386162471;0.11993382002030595;-0.0806362339082316;0.021176130967168305;-0.1274658763138765;0.15117832941164355;-0.10578090513459681;0.05122605724144291;-0.25064814323370843;0.1486323403851033
A;1;-8.5;-0.1585868317624488;0.08559113056082834;-0.17686694780277357;0.08760357584916934;0.011618213198016036;0.005118314278073299;-0.06756161449564324;0.11817234864309523;-0.07774092847138725;0.021139868848853105;-0.12542097433448607;0.14951532700184433;-0.09788470488176326;0.04667702744174651;-0.2449392726646753;0.1454494516396192
A;1;-8.4;-0.1562976589233518;0.08420041399743328;-0.173820111536946;0.0829898364150159;0.012883009778830612;0.004709089249767651;-0.0654998669406428;0.11637051423869327;-0.07489015870254079;0.021050519319211425;-0.12339560517696313;0.14785939642517665;-0.09011834944419306;0.042265942044676486;-0.23920326491705524;0.14237676711762548
A;1;-8.3;-0.1540146031152645;0.08275530424794786;-0.1707271473812444;0.07866138921270549;0.014077950486448998;0.0043158853331055624;-0.06331049775411035;0.11454946742786642;-0.07207913568211488;0.020894473385110857;-0.1213574898752885;0.14621420547179387;-0.08250513076231147;0.03806077775362482;-0.23342733651724412;0.13946787430751728
A;1;-8.2;-0.1516560525784083;0.0812500599703121;-0.1675414889064406;0.07473829804782461;0.015223145253271397;0.003945937979819902;-0.060924148966189584;0.11273132289620724;-0.0692841790965506;0.020657902409979556;-0.1192626327716848;0.14459285169410396;-0.07503842584777498;0.034141686569626906;-0.22757447199875003;0.1367885082194924
A;1;-8.1;-0.14914704075610707;0.07968231881725796;-0.16422133698396024;0.07133170782827669;0.016336794709326696;0.0036059928773974903;-0.058276695909068366;0.11093725632144436;-0.06648588057626803;0.020327274767272918;-0.11707099089593065;0.1430065179729958;-0.06771709657478198;0.03058407951874953;-0.22161278205806223;0.1343996930257112
A;1;-8.0;-0.14651841424639134;0.07806327780385836;-0.16079396588659023;0.06840210836793137;0.017410720211508135;0.00329559336511398;-0.05539172990623076;0.10916773946778369;-0.06369627123571675;0.019906399757027238;-0.11479286914667686;0.14144675240258575;-0.06055924775218102;0.02736637496128802;-0.2155600309383665;0.13227694314457583
A;1;-7.9;-0.14382484256175854;0.0764026430158169;-0.15730091386317824;0.06587124631077312;0.01843177959355735;0.0030123988392247725;-0.052315817602820225;0.10741729839309277;-0.06092997786127974;0.01940557290671574;-0.11244956558953767;0.13990215086414004;-0.05357698638325292;0.024439322246567308;-0.20944189243043088;0.13037225121724294
A;1;-7.8;-0.14112699948537522;0.07472763820826733;-0.15378961177337303;0.06366396219351822;0.01938267695065221;0.002753759710147463;-0.04909349276320274;0.10568160903643697;-0.05821948469926852;0.01882818340400849;-0.11006969924809873;0.13835546047228053;-0.04681665484753772;0.021763156551474427;-0.20329875106031103;0.12864264389738933
A;1;-7.7;-0.13849995747055832;0.07306749976510929;-0.15031717316855442;0.06168391356149705;0.020242619292353936;0.002516038511894081;-0.04578154437095172;0.10395370079670796;-0.055601655519936344;0.018180177147921306;-0.1076887363044019;0.1367867220283161;-0.04032721009955953;0.01928464431328747;-0.19717814821241308;0.12703330368699017
A;1;-7.6;-0.1359481370766531;0.07141658121150707;-0.1468915971667375;0.05991047509578484;0.021012754085116825;0.002299545513829493;-0.0423945408377806;0.10223555666657891;-0.05306789189353367;0.01747003320128737;-0.10530335445252437;0.1351962774257105;-0.03409120215288475;0.01698700730592595;-0.19107830860645603;0.12552684174832018
A;1;-7.5;-0.13346116552583087;0.06976826324172158;-0.1435102257713048;0.05834286036666958;0.02169800578313108;0.0021052568713431086;-0.038936030866363325;0.10053117123423272;-0.05060609710533015;0.016703809370056888;-0.10290465686112071;0.13358716361037892;-0.02808898810591387;0.014865805814029631;-0.1849911807805409;0.12411660696859528
A;1;-7.4;-0.13106519668909655;0.06811622688516294;-0.14019594577642103;0.05692773020844788;0.022295012511371226;0.0019323425604982347;-0.03543846682542551;0.09883915173643842;-0.048210442148185706;0.015895204302544208;-0.10049754401828892;0.1319567764638938;-0.022300378375513574;0.012882559022945106;-0.17892276150418684;0.12276701512032684
A;1;-7.3;-0.12878046379948938;0.06645205281232869;-0.13696735196430332;0.05561700067471076;0.02280216754125597;0.0017800763777469086;-0.031931849214216435;0.09715840314911928;-0.04587221959597265;0.015058147890682605;-0.09808458696732902;0.13030396298054203;-0.016700642535747434;0.011001214898302969;-0.17287603601269286;0.12144496215799094
A;1;-7.2;-0.12665127194123915;0.06481138614952764;-0.13385712411022155;0.0543595522587772;0.02320590104020681;0.0016456324632869723;-0.028448191617708396;0.09548513240978096;-0.04362891682176695;0.014189869797379018;-0.09569456455706238;0.12861272659354128;-0.01134812641999794;0.00919853109059332;-0.16689040694071888;0.12012025832406126
A;1;-7.1;-0.12474102066673343;0.06324435150701202;-0.13091095753643778;0.053088646764504865;0.023486283209914305;0.0015252430265828565;-0.02502736192561361;0.09381386451251128;-0.04153481174695273;0.013284150793499983;-0.09336819751642533;0.12686051791977082;-0.006328686221806379;0.0074465433669992365;-0.1610211749434658;0.11875620960803568
A;1;-7.0;-0.1230562440640286;0.061774972093659564;-0.12813595250370646;0.05179314319662298;0.02363993240357054;0.0014174518621885568;-0.02168115769517165;0.09214461965050624;-0.03961076037190381;0.012337490042435562;-0.09111754150587714;0.12503967252231885;-0.0016783123094992192;0.005743744363810865;-0.15528898625606402;0.11734326419126351
A;1;-6.9;-0.12160429674280859;0.06043139187855262;-0.12553895069419596;0.0504630849592278;0.023662820065906587;0.001320499017861465;-0.018420834220706617;0.09047693842405158;-0.037881856384210266;0.011344638910737004;-0.08895707470934688;0.12314152739303097;0.002559412644060899;0.004090596031598892;-0.14971742450635173;0.11587305408727877
A;1;-6.8;-0.12045188064089007;0.059245697388064844;-0.12317108672647947;0.04901784768644735;0.023537374819689205;0.001231686328267756;-0.01529097070533414;0.08880721595768248;-0.036385109210829825;0.010308184771044893;-0.08691914858533867;0.12114769610438625;0.0063312378360871335;0.002446204012008124;-0.14435161376815575;0.11430187718727103
A;1;-6.7;-0.11965314808806138;0.05823734193920105;-0.12107647188213733;0.047385020782418685;0.023250687909825984;0.0011492506981545247;-0.012331431806442694;0.08713385321873313;-0.03514348494233488;0.009234537091318273;-0.08502621942248378;0.11904466309809081;0.00960722467810271;0.0007714283593509563;-0.13922513026461392;0.11258994405850498
A;1;-6.6;-0.11928982865465443;0.057452046591709216;-0.11931219877163812;0.04547128100574005;0.02278032407812347;0.0010686661653949159;-0.009594343240217462;0.08544890144374628;-0.03421013290313368;0.008122706007388736;-0.08332399005439584;0.11680929490426806;0.01230950601650349;-0.0009798431893419668;-0.1343961396678921;0.11068760287686974
A;1;-6.5;-0.11943711403865986;0.056929263109253725;-0.11793223171204836;0.043189633566631525;0.02210631059337409;0.0009861665638313255;-0.0071272707308223104;0.08374635398664187;-0.03363114709039472;0.006973112007753635;-0.08185213966947202;0.11442099275854822;0.014370696159284435;-0.002850591474884645;-0.12991674208291304;0.1085494296355427
A;1;-6.4;-0.1200320480983077;0.05664499932741318;-0.1169000674273466;0.04058688620350104;0.021247986452928913;0.0009039472331373588;-0.004911064860500858;0.08203468447388218;-0.03337151495546209;0.005793168991828246;-0.08057954856062288;0.11189407689662811;0.01584355717533814;-0.004819094813608871;-0.12575717471554526;0.10619549552189689
A;1;-6.3;-0.12097535732431108;0.056563233735805074;-0.11615180102721467;0.037746373874650185;0.0202346529503572;0.0008247756731183387;-0.0029094502262685396;0.08032366839597982;-0.03338008039195728;0.004590126242623782;-0.07946085332287023;0.10925162054311244;0.01680460758284319;-0.006845832736762425;-0.12186848561635522;0.10366359546965631
A;1;-6.2;-0.12218085117251576;0.056634120750566286;-0.1156426501652188;0.03473913927812777;0.01909473973582898;0.0007546134084046585;-0.0010842216757955825;0.07863141682881292;-0.03359265681051937;0.0033772834104555116;-0.07843906692022795;0.10651751100900508;0.017348748636895728;-0.008896302796141509;-0.11819650095571888;0.10099062634090483
A;1;-6.1;-0.12354278105931371;0.056798419314520565;-0.11531499239187148;0.03165463441641414;0.01786228571903692;0.0007002169266820957;0.0006119098245571664;0.07697786934056472;-0.03393329564947578;0.00216910858372632;-0.07744736465488966;0.10372061067026639;0.017588637065427015;-0.010927268555426917;-0.11467557346536594;0.09822254522521146
A;1;-6.0;-0.125015541310189;0.05705094285999701;-0.11513059764118694;0.02852668545676762;0.016551517254685066;0.0006597683774920426;0.0021892807631029854;0.07536118290143312;-0.03439038705454145;0.0009669614210547905;-0.07647614697381488;0.10087128441602022;0.017543186520381227;-0.012924081816072519;-0.11129017980777345;0.0953736072559459
A;1;-5.9;-0.1265756218306695;0.05739430673948709;-0.1150652790291673;0.025370033137691816;0.01517108805885492;0.0006307970464201063;0.0036507695989165256;0.07377799860355916;-0.034963271211024605;-0.0002288049493550659;-0.07552507316969592;0.09797554004236897;0.01721439742391606;-0.014880748398223176;-0.10803523552639493;0.09245066718025363
A;1;-5.8;-0.12814072885884897;0.05781190027822669;-0.11505619210435825;0.022249764144065765;0.013744141772326302;0.0006120364539228262;0.005017993518039887;0.07222719975028946;-0.03562431752487427;-0.0014160335650839073;-0.07457221258401603;0.0950503300770702;0.016646538772195463;-0.016768345585040922;-0.10488040749721605;0.08948018843783112
A;1;-5.7;-0.12963540322494982;0.05829031882519953;-0.11504294346582;0.01922582086875657;0.012292221525072478;0.0006016251834406461;0.006310643183370601;0.0707061300789662;-0.03635045829117267;-0.002593444433745873;-0.07359979197370681;0.09211161942843216;0.015877078095575037;-0.01856046712820092;-0.10179838627960613;0.08648702932317365
A;1;-5.6;-0.13101455120204886;0.058781921620515654;-0.1150114289355777;0.016338256550228802;0.010835569074705731;0.0006065618236501535;0.007562312505617896;0.06923572357719365;-0.03708580592775057;-0.0037469221595918256;-0.07255699859570264;0.0891785101408491;0.014985361127046737;-0.020234484927478924;-0.09874550556579642;0.08350237965266816
A;1;-5.5;-0.1322229700409423;0.05922248721391332;-0.11495091818182246;0.013635440698443357;0.009398268212585492;0.0006371068437269756;0.008814749501363295;0.06784509559200425;-0.037755437457208885;-0.0048574018278415565;-0.07137618113133737;0.08627358717195843;0.014078106141221625;-0.02176255752479417;-0.09566678094248449;0.08056361611122975
A;1;-5.4;-0.1332601215544713;0.0595861436441778;-0.11486661452368807;0.011120767144865429;0.007989423014814534;0.0006968054707314764;0.0100857060160493;0.06654658356190568;-0.038332882029942894;-0.005915441039619829;-0.07003256622412479;0.08340817457162508;0.01319105895894701;-0.023140448397864777;-0.09253983576583735;0.07768733468655853
A;1;-5.3;-0.1341320289512815;0.059844255859593964;-0.1147702315170882;0.00879323574331714;0.006617189543030477;0.000789990314013167;0.011393736582549607;0.06535443737754942;-0.03878977072345613;-0.006910618854287343;-0.06849957890949998;0.08059336253920524;0.012361913444561168;-0.024365280881379903;-0.08934203096600779;0.07489023166430808
A;1;-5.2;-0.1347434172050308;0.059940385096868276;-0.11461838299461391;0.006724933016434953;0.005310800840511831;0.0009236577545639335;0.012774278835720132;0.0642876524167253;-0.039054146711464455;-0.007827693504850686;-0.06671772324214764;0.07785145504649815;0.01169931389697254;-0.025401862283561005;-0.08602188127892507;0.07220778202462208
A;1;-5.1;-0.1349978703001602;0.05982983491752014;-0.11435962396180521;0.004985734641151485;0.004097872585584028;0.0011020239763741557;0.014255058927472142;0.06335766527871334;-0.039066502261235314;-0.008654983260553806;-0.06464038324988142;0.07520226723960732;0.011295972583416969;-0.026218133781803488;-0.0825362641364622;0.06966999995648715
A;1;-5.0;-0.1348060051484632;0.05944201342597921;-0.11396120216382677;0.003649346028775202;0.003008581810860278;0.0013351816590763121;0.015881541907621255;0.06259099609063545;-0.038741497758405075;-0.009374129659858177;-0.06219533319961368;0.07267059773199147;0.011276812094584088;-0.026775124383036975;-0.07882513549684234;0.06731997670402912
A;1;-4.9;-0.13407718871025232;0.05871271318842641;-0.11338735957993329;0.0027864229258129924;0.0020717495745472547;0.0016318158741457367;0.01769252238811969;0.06200995164211687;-0.03800022403580172;-0.00996831939548759;-0.059317954237384285;0.07027875971167585;0.011759242458207808;-0.02703674694279279;-0.07483508665371552;0.06519542576931325
A;1;-4.8;-0.13284848807161698;0.05766951762145922;-0.11263717804371964;0.002360866282046903;0.0012813487927463285;0.001984177883759486;0.019668854940549707;0.061596255274427136;-0.03687911421237011;-0.010443117290508397;-0.05604562206133945;0.06802343505195996;0.012693177201226646;-0.027024504209174793;-0.0705880304499642;0.06328380415448498
A;1;-4.7;-0.13120661643513376;0.056361620978576;-0.11172980355307338;0.002301236898567538;0.0006199130663535612;0.002381132800690189;0.02177967298168859;0.06132328624908734;-0.035445134793052446;-0.010809831503555856;-0.05244153126831108;0.06589440245879885;0.013981211931273663;-0.026776479696730693;-0.0661253927529648;0.06156154245844636
A;1;-4.6;-0.12917166970267768;0.05484246478520216;-0.1106464538367824;0.0025646081731234283;7.774611902355844e-05;0.002809225274824634;0.023977112587562743;0.061155908428569994;-0.033758254053612546;-0.011079603782588876;-0.04857180040125986;0.06387836932917867;0.01554798656238976;-0.026324116871011327;-0.06149538279872413;0.05999294569283009
A;1;-4.5;-0.12678154975729772;0.05317861422792536;-0.10937307206508251;0.003093086284665425;-0.0003598923599597015;0.0032526235055385655;0.02620489233142731;0.06105294092506064;-0.031894938794115646;-0.011266909790443869;-0.04451745468128543;0.06195827495014772;0.017294378357856743;-0.025707033556843673;-0.056757116474592806;0.05853514131547133
A;1;-4.4;-0.12410748939295946;0.05138103191994858;-0.10793727059465574;0.003840849146250047;-0.0007029906906979022;0.0037079539043922694;0.02845928657471042;0.061005758991256265;-0.029881093256451052;-0.011375666306356003;-0.040304763908403984;0.060131441776225536;0.019176523114415644;-0.02494424413024765;-0.051926950195042565;0.05718656034589875
A;1;-4.3;-0.1211985545019072;0.04944850125222722;-0.10636101451091307;0.004777230345821337;-0.0009571847264862043;0.0041740642476577605;0.030740795871087023;0.06101008736136304;-0.027726404272058858;-0.011406933764097182;-0.03594783826007664;0.05839658337910425;0.021175096515981373;-0.02404693431039817;-0.04701500680978565;0.05594922562922555
A;1;-4.2;-0.11816924505850679;0.04741137780276583;-0.10468682923345263;0.005827731589000074;-0.0011412895233604559;0.004644349526730096;0.033039156168956474;0.061050703623453106;-0.02548396926177965;-0.011369587993133479;-0.03149375084395167;0.05674797220433181;0.02320457687748334;-0.023048220395699204;-0.042048636800780415;0.05481594626632935
A;1;-4.1;-0.11513352350623673;0.04529622004805978;-0.1029595474385534;0.006919470463507604;-0.0012740884474080616;0.005113091276598425;0.03534579762367507;0.06111391603544236;-0.02320304586142541;-0.011272029618575985;-0.026986846342309967;0.05517954562676941;0.025184229440037953;-0.021979494308601577;-0.037054731219212655;0.05378067206673842
A;1;-4.0;-0.11204275851601597;0.043143794095835464;-0.10113566857918244;0.008041806126377171;-0.0013576769861174398;0.005568723899456174;0.037601171418922164;0.06116381790763459;-0.02091868498408367;-0.011122014136208058;-0.022483337597313913;0.05367305567462921;0.0270842304386818;-0.020860084510823995;-0.03208641882580032;0.05279848300280454
A;1;-3.9;-0.10881542144951606;0.04100861558886626;-0.09914830266328245;0.009192211280866669;-0.0013919611511603591;0.005996143604487969;0.03972833847887891;0.061154862235058616;-0.01867401930721968;-0.010929133524139267;-0.018051468442155993;0.05220676831694426;0.028872029737379457;-0.01971175782859058;-0.027206734736163973;0.05181147793519125
A;1;-3.8;-0.10539042719137903;0.03890435353180921;-0.09696116055464898;0.010378246940535796;-0.0013749714191284568;0.006389515030626569;0.041683775351327945;0.06106293549069486;-0.01647502796506295;-0.010696612172983677;-0.013723425702841574;0.050764632746400196;0.03055525194545261;-0.018539592833453078;-0.022457242584416726;0.05078694196815592
A;1;-3.7;-0.10168722190486434;0.03684511578571481;-0.09452907924751486;0.011615255800970559;-0.0013029882371373702;0.00674273888789223;0.04341827155724953;0.06086197087416911;-0.014324556503364505;-0.010427492477773193;-0.009531885362337178;0.04932869921798311;0.03214935035448452;-0.017346600313286942;-0.017882800561402235;0.049687723004766315
A;1;-3.6;-0.09771457184719079;0.034890045704399686;-0.09182617581882724;0.012863546285342586;-0.0011854925940610883;0.007041229811398431;0.04487949312495765;0.0605142895074362;-0.012286178377243218;-0.010133819578040715;-0.005546917285347064;0.04788603407179526;0.033579144929356985;-0.01616631095183152;-0.013530034537388325;0.048476333810726135
A;1;-3.5;-0.09351866611214188;0.033090293035497265;-0.08884830144780409;0.014072583525907234;-0.001034981353228659;0.007272741634663404;0.04603185855813052;0.05998997041023735;-0.010422190504023376;-0.009827104902833561;-0.0018308981397163748;0.046428127207827075;0.03476327340165586;-0.015032411314124694;-0.009434927066698684;0.047128534750522366
A;1;-3.4;-0.08906231039142476;0.03151576779520271;-0.08554746350908715;0.01521437302048323;-0.0008592077935691833;0.00742036243485078;0.04679928373544495;0.05924166801872799;-0.008797936055671585;-0.009520789726066958;0.00153465589875168;0.04493338979848449;0.035633728687510136;-0.01397833383436664;-0.005662107391666282;0.045587512024360066
A;1;-3.3;-0.084324890812562;0.030231575262672727;-0.08188492197285235;0.016258141285895977;-0.0006663409448304236;0.007468489529315114;0.047116718032058635;0.058227030074109454;-0.007476737723770555;-0.009227668350362705;0.004474593616309974;0.04338430494142376;0.03612163187874451;-0.013036554604338058;-0.0022666078491910824;0.043805780086696
A;1;-3.2;-0.07934315131213054;0.029204866985973688;-0.07789577471777065;0.017195910765155364;-0.00046028502367079227;0.007423415519378196;0.04700301094595272;0.05695521450054786;-0.006435380399979707;-0.008945788717976022;0.00699999835678522;0.04177868705762933;0.036249194461044354;-0.01219970199965248;0.0007501282916662078;0.04179943401725428
A;1;-3.1;-0.07413945894106799;0.02837678205668226;-0.07362506266913194;0.01803560452034292;-0.00024234341127638004;0.007297376077917583;0.04648755117632675;0.05544596176696892;-0.005621648855100858;-0.008669035552642868;0.009143111678573845;0.040112578953309885;0.03607578272468448;-0.011446612655447552;0.0033905621133669683;0.03959125852539591
A;1;-3.0;-0.06882987764936299;0.02769616317205692;-0.06914667428213583;0.01875410593976179;-1.763821050282388e-05;0.0071014003643821155;0.04563997096991823;0.05372981579703895;-0.005007715427238324;-0.00839262753231651;0.010942011163766807;0.038404685585677;0.03561353233759501;-0.010767968902241076;0.005699559367743134;0.03724078337158154
A;1;-2.9;-0.06353984434631244;0.02709820891438497;-0.06454574147219283;0.019331219310309233;0.00020897708090394929;0.006849679918984997;0.044542134605433326;0.05184488972809742;-0.004553999780368301;-0.008109840075670505;0.012446959494348597;0.036675888075609286;0.034886678012957084;-0.010148931756353008;0.007729775559017327;0.034816820751885746
A;1;-2.8;-0.05821373722690293;0.026561034451667354;-0.05982533716717775;0.019784682282729005;0.0004366084929330327;0.0065472063261751146;0.043169582539172247;0.049787171449894974;-0.004228170789595254;-0.00781965666081863;0.013655657796747711;0.03490438565877163;0.0339462552218146;-0.009576645439348663;0.009443891785660519;0.032298751606578247
A;1;-2.7;-0.05278973731472103;0.02607711576976879;-0.05497941581713839;0.02012961739428576;0.0006643521311371359;0.006196146905317335;0.041489993024465655;0.047547406298501294;-0.0040099665685708885;-0.007522870346786448;0.014556461113227392;0.03306869275227786;0.032830292632038294;-0.009043544198172881;0.01080318698960081;0.02966094587452206
A;1;-2.6;-0.04721063707602191;0.02560109905420438;-0.050022250695262116;0.020393668431287093;0.0008915035091838774;0.005806419374775551;0.039488452235857174;0.04513014940321103;-0.003845445195013397;-0.0072156345524527765;0.015162780897035155;0.031144588192968392;0.031615983474357456;-0.008526427960619198;0.011770185451733362;0.02688808148527988
A;1;-2.5;-0.041407594830618066;0.02509162734360748;-0.04496340163524515;0.02060709841705055;0.001117787178660734;0.005387405074341878;0.03714437746092081;0.04253807649455732;-0.003681565601768355;-0.006894441176410027;0.015485588008258944;0.029106067480947573;0.030381728575976652;-0.008002273869564647;0.012304269382389599;0.02396039598462707
A;1;-2.4;-0.03553238632433953;0.02452129023658367;-0.03987838969124269;0.02073316916136836;0.0013381055403698383;0.004946417472913467;0.034544908693947995;0.039804757738158614;-0.003517179354432187;-0.006556863406666835;0.015560631192220953;0.026988865290687336;0.0291016099279382;-0.0074728590044785825;0.012483295639635017;0.020957122838418663
A;1;-2.3;-0.02981339253871962;0.023855653248562536;-0.03487015196515486;0.02071576737752645;0.0015450197993480685;0.004492139457112465;0.03181671369116845;0.036977094505914465;-0.0033597135760015107;-0.006199841404808559;0.015437421793294881;0.024847306395940016;0.027724886975370566;-0.0069441308788120715;0.012421508520243485;0.017991761261111794
A;1;-2.2;-0.02434099884189944;0.02309509062451598;-0.029984910637759654;0.020526810616629643;0.0017349231262056009;0.004027095775093414;0.02900926393331371;0.03407327543735361;-0.00321988814792995;-0.005823904454584472;0.015130048416634345;0.02270553332360059;0.026223301648888864;-0.006422816742048365;0.012172529787844333;0.015113702554914621
A;1;-2.1;-0.019226277989311313;0.02224315014693934;-0.025274328207853358;0.020132191466631255;0.0019039750889131568;0.003553434907720643;0.02618299436815885;0.031114857142233276;-0.0031147820561443496;-0.00542976337045431;0.014655229672191794;0.02059459316073209;0.02455714375912965;-0.005918454319533417;0.011803671499070134;0.012382727279036665
A;1;-2.0;-0.014621455095597646;0.02124608573582476;-0.0208218953259518;0.01950347255519702;0.002043693656126777;0.0030826414885520848;0.02342516361980973;0.02813908439838153;-0.003025301701791605;-0.00501370673843482;0.014055962583412018;0.018540753531992138;0.02272263940367747;-0.005423986001758863;0.011374108914965042;0.009872809995469467
A;1;-1.9;-0.010618844499730606;0.020051516293737137;-0.016691244313905784;0.01862834231648236;0.002146097961823301;0.0026257705487431338;0.020790387037370905;0.02517286790712614;-0.0029233979191580772;-0.004572605233256866;0.013364452787449466;0.016552908211283857;0.020738340979544745;-0.004927880777704008;0.010908598467768371;0.007628332764977763
A;1;-1.8;-0.007435589276767018;0.018604772104292344;-0.012987456865729996;0.017464437835832403;0.00220341873299823;0.0021954124654710583;0.01840790025902095;0.022268974302836142;-0.002799225877199163;-0.004101448654482809;0.012641359571776256;0.014680303826660968;0.018577199677870304;-0.0044269802864072005;0.010514510552193101;0.005761696169861885
A;1;-1.7;-0.005263627414846539;0.016852639283717608;-0.009805478234246934;0.01597547629842877;0.0022071912444232566;0.0018035077355103013;0.016390051113212678;0.019474154773217123;-0.0026415171207503363;-0.0035960373996157813;0.011939727853742532;0.01296316828856181;0.016218985283073195;-0.003917282293010693;0.010280081831782084;0.004369723431274064
A;1;-1.6;-0.0039624673795772836;0.014824161263988778;-0.007106854571487631;0.014189961853998234;0.002156960719217338;0.001447329680241971;0.0146589369091501;0.016764199616116304;-0.002445107026568749;-0.003060962616777907;0.011224851151358628;0.011365495445043727;0.01369935755361329;-0.003396455689015365;0.010139552720398903;0.0033901061006775812
A;1;-1.5;-0.0033214635479019705;0.012576196024403963;-0.004821829033341274;0.012149717899566426;0.0020562670792276805;0.0011199583156606963;0.013101742186688803;0.014101911897264952;-0.002212720612094543;-0.002502643903878443;0.010445374291857767;0.009842122550207222;0.011057891103236628;-0.002865211814340629;0.010010474410803383;0.0027340870752254887
A;1;-1.4;-0.0030992203370452387;0.010139075791255614;-0.0028713609669077655;0.009906254458432961;0.0019003255288527754;0.0008160590344719054;0.011567246419539323;0.011435759478634289;-0.0019316960824280471;-0.001929327185694163;0.009531867683563178;0.008315995340364424;0.008359625312526653;-0.0023175061712730205;0.009738216095840357;0.0022706770033771306
A;1;-1.3;-0.003006537500700901;0.007554556286421654;-0.0011572249359312892;0.0075209297117386775;0.0016854592423047876;0.0005282740026393284;0.00987734140291252;0.008704437056770598;-0.0015900381245881334;-0.0013504566477369195;0.008402957876706196;0.0066992552326752275;0.0056779921569392044;-0.001747276578766055;0.009146330403369873;0.001846182449988465
A;1;-1.2;-0.002984493243906705;0.004860445503220401;0.00033737386545418246;0.005009005152456059;0.001416841985099282;0.0002547622991233567;0.008020532354838572;0.005909861041053066;-0.0011998145119260784;-0.0007678351605431288;0.0070550519621424;0.004997261699924316;0.0030131106006718866;-0.0011588296773243911;0.00825909398874547;0.001462061201548348
A;1;-1.1;-0.0030231640482352162;0.0020817504948378307;0.0016127595869610545;0.0023772541049336127;0.001097727270511939;-4.423807633990862e-06;0.006011358039067716;0.0030635712826390105;-0.0007742471211091839;-0.00018235893443740991;0.005495573518838448;0.003225265891504847;0.0003549456022060582;-0.0005569261533602266;0.007119676554542487;0.0011409152347474638
A;1;-1.0;-0.00299327836393104;-0.0007199894889398095;0.0027111794736542905;-0.0003465084778229155;0.0007367916312723821;-0.0002545397304691832;0.00380365747475242;0.00015502485804264055;-0.0003275311763655253;0.0004028664783470859;0.0037068451898720767;0.0013781080847916627;-0.002286041945452233;5.373083904869347e-05;0.005732666045256352;0.0008565844285128854
A;1;-0.9;-0.0027835243915523833;-0.003484746585941334;0.003670551464062477;-0.0031368687791042404;0.0003430836136839588;-0.0005004215426547276;0.0013636955750833124;-0.002821506206942548;0.0001236362720042905;0.0009852301928692242;0.0016768080194520252;-0.0005427883207920203;-0.004905494474898298;0.0006675340588344625;0.004116453896007677;0.0005940265905635123
A;1;-0.8;-0.0022152874001681866;-0.006213445636167769;0.004556192536443682;-0.00594981398885297;-9.685573790108037e-05;-0.0007448668915248646;-0.001441932187959516;-0.005911621380813248;0.000590528629782483;0.0015559504419346837;-0.000660297603098492;-0.0026162391131139273;-0.007449305665047312;0.0012906035579725028;0.0021042224440206425;0.00022986712811157162
A;1;-0.7;-0.001050726309046901;-0.008915993031912262;0.005452721151396389;-0.008729680877100687;-0.0006022159264240656;-0.0009914848452936553;-0.004797944075295213;-0.009180758935336986;0.001095173143948358;0.002103719139471494;-0.003394726777759871;-0.004953804793743188;-0.009838755912580766;0.0019337469462872292;-0.0005437430802581744;-0.0004100976859313654
A;1;-0.6;0.0007769248407685225;-0.011607757949918973;0.0063919974309447625;-0.011449541164572974;-0.0011845751406003302;-0.0012394653141223344;-0.008761955535200983;-0.012645394084218164;0.001639786844647162;0.002623165062662025;-0.00655732631648398;-0.007596356329451659;-0.01205088069578153;0.002599523217755806;-0.003913788552831754;-0.0013815391741696104
A;1;-0.5;0.00333358862308053;-0.014311864116718809;0.007407460362318652;-0.014081506051852877;-0.001858153786981731;-0.0014877427566215573;-0.013397809427296181;-0.016324648804366237;0.002228123345735966;0.0031083649385648116;-0.010182881341401107;-0.010591062474246016;-0.01406037387464032;0.0032912755364806756;-0.008108170317487229;-0.0027481264539641614
A;1;-0.4;0.006876183695387894;-0.01700125955725884;0.00858098954965758;-0.01657153262009814;-0.002631056720103331;-0.0017422849234671745;-0.018871914359596786;-0.020275588640550346;0.0028766585831654368;0.0035503829316239077;-0.014345634499963289;-0.014024808443813264;-0.0157941881411654;0.004018107564243589;-0.013306916186985873;-0.00465963168303718
A;1;-0.3;0.011629459861127067;-0.019636957975385005;0.009981630606858971;-0.0188723743706527;-0.003505355308327296;-0.002008777374109094;-0.025314272655833747;-0.024540717494221376;0.0035956203738241044;0.0039425990842874015;-0.019099993419285255;-0.017959093324989794;-0.017193754647916393;0.00478669801010323;-0.019632260285352032;-0.007229089114341836
A;1;-0.2;0.01787721171407508;-0.022206455967537675;0.011708630723592073;-0.020922470619368472;-0.004496894969262755;-0.002294264476734753;-0.03292931278030942;-0.02919273591805016;0.004403444633979348;0.004273229781810883;-0.02454227189397784;-0.022507077989036617;-0.018176485085138694;0.0056072684873136325;-0.027328232520278384;-0.01064616237389826
A;1;-0.1;0.02588631007458364;-0.024692728471926273;0.013851857496149478;-0.022664555237641437;-0.005618751075926909;-0.0026054439078011526;-0.04190287136997917;-0.03429687514758628;0.0053176254469224915;0.004531874423270743;-0.030757700638173624;-0.027769407313836147;-0.018664807230729608;0.006489847224911305;-0.03661087538251806;-0.015082423088990993
A;1;0.0;0.03552700557681998;-0.027089338076204506;0.016376909462461064;-0.024106789490988323;-0.006863285196553548;-0.002937838098649337;-0.05211730508973744;-0.039800782010419145;0.006312535769932737;0.004723022612377115;-0.03768740527100878;-0.03367760793807051;-0.0187078242300851;0.007426331540571152;-0.047324855997686655;-0.020425143525465206
A;1;0.1;0.046549341559557256;-0.029404093744190174;0.01921925636636246;-0.02527504166647976;-0.008221637612878752;-0.0032840429488949496;-0.06337740096251832;-0.045622866204583445;0.007347542409137375;0.004854053276392101;-0.04523947452648702;-0.04012352376375006;-0.018393633079636373;0.008402413322581292;-0.059232895255557416;-0.026491736670782196
A;1;0.2;0.05877223799897813;-0.03160696584391154;0.022305105717922658;-0.026194355791082646;-0.009673547175726327;-0.003638152916823678;-0.07549686590372673;-0.05168271451814732;0.008397868255483942;0.0049352406921006065;-0.05331131234517361;-0.046990382553032894;-0.017784051955413993;0.009410858501761155;-0.07206843808340402;-0.03310070312653046
A;1;0.3;0.07195807475673366;-0.03366902884762313;0.02554336335916041;-0.02689915041396196;-0.011195531177389029;-0.003992754849734048;-0.0882455867686609;-0.05788309656388302;0.009432580913138366;0.004979086220118667;-0.06177933200587482;-0.054136850072508125;-0.016959033326029882;0.010441898510498593;-0.08551111733503625;-0.04002980698280911
A;1;0.4;0.0859631817169646;-0.03561593643674765;0.028919379342500662;-0.027394515825997612;-0.012795304005782882;-0.004345473960857937;-0.10154162209901418;-0.06418850789641617;0.01041603547919756;0.004985392347764517;-0.07061339754764617;-0.06152331815071399;-0.01597673085206086;0.011483852561302133;-0.09948867398898553;-0.04720882620837097
A;1;0.5;0.10069837993371777;-0.03747125143311392;0.03243219029120947;-0.027678530805721913;-0.014483852134048902;-0.004695914700709736;-0.11534564469004405;-0.0705801601338436;0.01131957670863315;0.004952049124753444;-0.07980245699839816;-0.06913288687879504;-0.01487681248433148;0.012528232827040853;-0.1139812635183759;-0.05460805218506959
A;1;0.6;0.11592271310880697;-0.039269329384658214;0.03604635719133942;-0.027768697960858457;-0.016264427187822506;-0.005038453266854148;-0.12950449133844621;-0.07699584359267986;0.012096172415455797;0.004882051843796198;-0.08928541780450949;-0.07689006348520167;-0.013748882079410052;0.013558267883025277;-0.12883575263454983;-0.06209259851875082
A;1;0.7;0.13140153945257627;-0.04104780028519128;0.0397300925908004;-0.027681830249759898;-0.01814283600788613;-0.005368235691565637;-0.14387633430085156;-0.08337828915158152;0.012698604491587773;0.004777531257871281;-0.09900765761912123;-0.08472618468357851;-0.012681017069464673;0.01455725525931717;-0.14391782537739228;-0.06953955012919
A;1;0.8;0.14705563458370463;-0.04275695962280679;0.0434151020028537;-0.027438492914205526;-0.02009859618101295;-0.0056833702035072875;-0.15833601227329286;-0.089671020257589;0.013123105327482065;0.004648182916922927;-0.10888430643643598;-0.09254976616978627;-0.011694327259855086;0.015527823753887393;-0.15902041942407674;-0.07682482742383145
A;1;0.9;0.16281662631220062;-0.04432079010468204;0.04701435137014531;-0.027064193659151137;-0.02209888198079568;-0.005980919523901562;-0.17272969585898235;-0.09580485167832364;0.013375941051370077;0.004507929604047334;-0.11880554039892033;-0.10024513198048357;-0.010800799683559958;0.016476748811522057;-0.17387097033004117;-0.08379233038814693
A;1;1.0;0.17867231607522438;-0.045703870133204205;0.05048973939246082;-0.02656891356193114;-0.024137722637089354;-0.006263604839851666;-0.1870152350041394;-0.10175743131646264;0.013454300573963351;0.004360548772852191;-0.12873215372340852;-0.1077693251303069;-0.01000463524503914;0.017407613998913885;-0.1883864109454203;-0.09040061885311124
A;1;1.1;0.19463073589334812;-0.046862176311612824;0.053800082643414626;-0.025963399469474346;-0.02620700270472298;-0.006534810342068376;-0.20115676301146124;-0.1075087456409296;0.01336099744773911;0.0042104341304511905;-0.13862393669851691;-0.11507962296032659;-0.009301013366370015;0.018326531073605157;-0.20248307899399354;-0.09661319342283248
A;1;1.2;0.21052429637536108;-0.04775523092802514;0.056872706724458766;-0.025272618286195758;-0.028276664312716804;-0.006787268762297849;-0.21495273789748204;-0.11297452758417226;0.0130831032992198;0.004071198629078232;-0.14836494397494882;-0.1220511985113486;-0.008739391674413177;0.01923069698028046;-0.21586449280235787;-0.10223712499232596
A;1;1.3;0.2261619577118399;-0.048364761681726876;0.059651271483456725;-0.0245178505414696;-0.03032422847606142;-0.00701359029293247;-0.2282107947224281;-0.11807600603026369;0.012597877174153282;0.00395386411675247;-0.15785379265956134;-0.12857273140788994;-0.008381919772013191;0.02011279052221715;-0.22827012428506954;-0.10709300071327599
A;1;1.4;0.24139725440215187;-0.04862672044607219;0.062040133809151854;-0.023733353421146575;-0.03231156908485033;-0.007207232726632817;-0.2407186843764011;-0.12272446486488064;0.011906020285419316;0.0038752905610230926;-0.16695765551891384;-0.13450423616213758;-0.008262017729767202;0.02097629208026941;-0.23936660516895092;-0.11097506507852728
A;1;1.5;0.25608193424695713;-0.04848618092324486;0.06395623212441315;-0.022949289682152152;-0.034202779401411476;-0.007361323575917567;-0.2522713214187151;-0.12683517858048;0.011005409121967347;0.003851209365457464;-0.1755520409568092;-0.13971455609900651;-0.008415614640113311;0.021823039048701975;-0.24883924653640843;-0.11368664458982414
A;1;1.6;0.2701923481259261;-0.047985989282075536;0.06543516102060298;-0.02215757873838209;-0.036026812381734885;-0.007482469503058198;-0.26292657171429124;-0.1304330433792691;0.009866464916225226;0.003872710968288118;-0.18368102185515056;-0.1442435938666593;-0.008868394681220693;0.022644582591499596;-0.2568213467946565;-0.11529993171860164
A;1;1.7;0.2837620910126626;-0.04718641161938297;0.0665352344756398;-0.021344440214944527;-0.03783000576033935;-0.007582613725098497;-0.27282640702336014;-0.1335779034062936;0.008459864811188211;0.003924539629104551;-0.19143527163269614;-0.14817979310409424;-0.009630828668395708;0.023433584399470853;-0.2635764684055495;-0.11597162724882537
A;1;1.8;0.29675343305694746;-0.0461678553477447;0.06734752267026156;-0.02048111495009408;-0.03964819204824899;-0.0076655531933287335;-0.28204728212329044;-0.13630573074723173;0.006741986542371237;0.003993532066894012;-0.19888905185273043;-0.15159497970021274;-0.01074293599337306;0.02417344101400687;-0.26929841057644577;-0.11579933299668888
A;1;1.9;0.3091451276957091;-0.045025106341109566;0.06798005988585132;-0.01953383844689416;-0.04152615752025035;-0.007736910658024954;-0.29070231896123655;-0.1386681754565986;0.004665760218102832;0.00406315161194204;-0.2061403357993168;-0.15458528570358698;-0.012243360901029732;0.024846087650171267;-0.27424442319109854;-0.11491865800677648
A;1;2.0;0.3209707751463915;-0.0437685843046598;0.06843097344143967;-0.0185138439786372;-0.0434864101804866;-0.007806956630614259;-0.29886502170581775;-0.14069820999545346;0.002229917475272458;0.004127783010516417;-0.2132226786396858;-0.15718500157994608;-0.014118423431020766;0.025456609293543764;-0.278540122041778;-0.11341586293687556
A;1;2.1;0.33225253469331406;-0.04239472059103555;0.06868727917129025;-0.017436007786343577;-0.04553976416377381;-0.007883230252757834;-0.3065704128290836;-0.14241398738113098;-0.000559494218029144;0.004185756169782451;-0.22014605711007995;-0.15940629982889476;-0.016351107568740808;0.02601250728454918;-0.2822456620097773;-0.11133906416875394
A;1;2.2;0.34305696369801275;-0.04093305915459977;0.0687630472487406;-0.016307881915076816;-0.0477264496076657;-0.007980917399907028;-0.3139625270339117;-0.14387692384431094;-0.0037093198497721858;0.0042255803948645365;-0.22698354379632324;-0.16132265097964194;-0.018925556185862114;0.026516963701679774;-0.28560049275490673;-0.10884498558284195
A;1;2.3;0.3534569278876152;-0.03940710938241043;0.06866716415150975;-0.015139751699342785;-0.05008334814570503;-0.008114959580330705;-0.3211805632985767;-0.14514720105488177;-0.007220642417189893;0.004236938736497997;-0.23380314105117161;-0.16300384215901254;-0.02181911126502989;0.026975529227101447;-0.28883195142468576;-0.10608575458388714
A;1;2.4;0.363388687606653;-0.03788500470794798;0.06850447313755303;-0.013896325668448561;-0.052618628031387615;-0.008279741117532602;-0.3282188503754755;-0.14623269974967634;-0.01112334213927646;0.004214336326680446;-0.24064044496374493;-0.1644900839456067;-0.025066946059753903;0.02737335391964102;-0.29200951137559183;-0.10308253544458168
A;1;2.5;0.3727501713332746;-0.03646004388414692;0.06841628278155643;-0.0125259495452128;-0.05534103636315635;-0.008465461258999163;-0.3350558100127419;-0.14713591578050345;-0.015463384731225105;0.004150793319507962;-0.24753823607335956;-0.16582799943731796;-0.02872874296642447;0.027686307184859427;-0.29520361258003813;-0.09984429612470658
A;1;2.6;0.3814895040680284;-0.03516354504484376;0.06846816918884091;-0.011010713484810974;-0.058239247348989664;-0.008664701789614426;-0.3416382163668814;-0.14784747570664258;-0.02024449064138878;0.0040480692585838085;-0.25449254814115374;-0.16702276351766798;-0.03281217336579978;0.02791102427239389;-0.2983855463235008;-0.09634430686264439
A;1;2.7;0.3895442212722253;-0.03402921951491189;0.0687354611094042;-0.009328193083087744;-0.06129666392296507;-0.008867369866556452;-0.34789478290134745;-0.1483519336618384;-0.025470131324402345;0.003909106702231213;-0.26149374264436;-0.16807538238973496;-0.03732752260913941;0.028042976976259126;-0.3015038203097413;-0.09253955515051526
A;1;2.8;0.39686163895067317;-0.03314650911722694;0.06932080331510004;-0.0074454291093877245;-0.06454678283866855;-0.009075128067577154;-0.35389699033158806;-0.14868482272854244;-0.031186092714742486;0.0037214596927972465;-0.26861608367057066;-0.1690594686535709;-0.04232701008989537;0.028060800854921464;-0.3047524393205512;-0.08852459550246161
A;1;2.9;0.4034177627861961;-0.03258925473327423;0.07029497356291703;-0.005344322912152144;-0.06802752245496713;-0.009294375940333666;-0.3597421752618404;-0.1488907010593472;-0.037428412628134566;0.003472684604368226;-0.2759343400617942;-0.1700486174286402;-0.0478479159141294;0.027949065526333694;-0.30834673253501776;-0.08441626449781658
A;1;3.0;0.4091469928816771;-0.03246216040505168;0.07180317686774718;-0.002973066633428889;-0.07176256444664197;-0.009520003507096142;-0.36547572346397406;-0.148998291094399;-0.04424402058027965;0.003151438423845576;-0.2835231288410247;-0.17112195508237882;-0.05394721517209877;0.027682274514218452;-0.3124576167719857;-0.08028838968167795
A;1;3.1;0.41398917184836037;-0.03286247912369067;0.07397132906745085;-0.0002880271925258526;-0.07577802065131856;-0.009749114207175502;-0.37115129755758147;-0.14903833085006557;-0.051677229027735194;0.0027465850954344617;-0.2914544330976483;-0.17235485400366368;-0.06067987413491682;0.02723658947477814;-0.3172606137427607;-0.07622076420176205
A;1;3.2;0.4179942805148098;-0.03374252229844066;0.07673820932704256;0.0026702903746596007;-0.08005674658618567;-0.00998604475553222;-0.37675142334978684;-0.14901409729173842;-0.059676192828156616;0.002266704432114075;-0.29969122190128594;-0.17372369428912293;-0.06798120380004047;0.02663705542175787;-0.32270418087270336;-0.07221184970183891
A;1;3.3;0.42124549236302844;-0.035014507268170014;0.08001028246985431;0.0058467909766042325;-0.08455881551544486;-0.010232560801640034;-0.38221539645273417;-0.1489147181096664;-0.06815537121933879;0.001728088478978762;-0.30815923726528727;-0.1751753723153655;-0.07574598795552667;0.025923278660926474;-0.3286409835392794;-0.06821735933839701
A;1;3.4;0.4238011564315496;-0.03660487002401869;0.0836410250520272;0.009165711556862188;-0.08928478758239322;-0.010504279845318543;-0.3875687634105782;-0.148752872369311;-0.07706282718156565;0.001138270147117204;-0.3168153206662465;-0.17667100825547344;-0.08391447964409604;0.025123800538677354;-0.3350557436338555;-0.0642672973148426
A;1;3.5;0.4257374310043538;-0.03841935685828446;0.08745710702662546;0.012539220018926933;-0.09422903695336693;-0.010817871377950539;-0.39282897345640855;-0.14853813855077114;-0.08633219718819696;0.000507572902127329;-0.32560143733344304;-0.17815856649595485;-0.0924091445244608;0.024274180051279792;-0.34190298435099997;-0.06038181658447295
A;1;3.6;0.4271201408535177;-0.040416988648950714;0.09146779789352255;0.015959061244530837;-0.0993432418424085;-0.0111631217568533;-0.39791953249495915;-0.1482590677600868;-0.09589103236929475;-0.00014942810327056577;-0.33446762377405026;-0.17961822482054224;-0.10114493481263143;0.023400523321789102;-0.3490528802735513;-0.05651031390147443
A;1;3.7;0.42799689052452994;-0.04257708061249854;0.09570411499737563;0.019428259909479273;-0.10458632983434946;-0.011528931188198754;-0.4027761787587636;-0.147907966691597;-0.10568173486185195;-0.0008208698259855041;-0.34337841486567555;-0.18104291454570198;-0.11005867327170193;0.022520622366675624;-0.35640998385563716;-0.05261452582484294
A;1;3.8;0.4284672104548166;-0.04482443158083482;0.10014606583372654;0.022923292553761243;-0.1098924514620716;-0.011904345482520284;-0.4072941517774762;-0.1474647510740228;-0.11560274344512322;-0.0014865548787730276;-0.3522565001408182;-0.1823910037986618;-0.11902555497901535;0.021674424393691716;-0.3637728483192868;-0.04861518682084531
A;1;3.9;0.42863037577556184;-0.04708772464005273;0.10478484566079693;0.026426513332487023;-0.11519337444907762;-0.01227651193876067;-0.4113648053006571;-0.14690839447769122;-0.12555246297830713;-0.0021259988616888492;-0.36102542916897207;-0.18362351472080896;-0.12792263584405816;0.020900351088345204;-0.37093735487327173;-0.04442990087849408
A;1;4.0;0.4284980899804127;-0.049327534914686666;0.10946866033848757;0.02986711177499357;-0.12051974837196866;-0.012666020301281833;-0.41507112861430695;-0.14626530482841815;-0.1355183273596925;-0.0027390594091727394;-0.36967225511942026;-0.184720662051717;-0.13675437140953495;0.020206487236734016;-0.3779944383206404;-0.04013687806114108
A;1;4.1;0.42806891961510374;-0.05149974742437502;0.11398491099899388;0.0331483424196235;-0.12592798133949756;-0.013104942178101986;-0.4185489812379286;-0.14557472554929785;-0.14550454682638048;-0.003330302199108459;-0.37819452525983355;-0.18566012621577954;-0.1455469555141775;0.019597959246477448;-0.3851033611670678;-0.035856830444327414
A;1;4.2;0.42734540722312797;-0.053596482064171;0.11825495668657648;0.036235383824904766;-0.13144126086795183;-0.013604325856304555;-0.4218681036263021;-0.14486140471420583;-0.1555067020584442;-0.0039001080552445444;-0.38659413029686807;-0.1864446665965369;-0.1543213366052889;0.019072359887333246;-0.3923633016204562;-0.03166089640856429
A;1;4.3;0.4263193119661315;-0.05561502743898794;0.12218765684745136;0.03908983959823331;-0.13709323143439178;-0.014178249895675066;-0.425118921293298;-0.14415483577147015;-0.16553106796779105;-0.004451088079296284;-0.39488033263765043;-0.1870798944055858;-0.16311502177937243;0.018622759160652702;-0.3999057126067376;-0.02763693925715227
A;1;4.4;0.4250461864974948;-0.0574828007283541;0.12561397303096555;0.04162563767820249;-0.14289420434754874;-0.014846883578496062;-0.428356432703735;-0.1434749099646302;-0.17553248461285875;-0.004978531071975212;-0.4030184786861195;-0.18752969456203772;-0.17187591879687947;0.018275074779639855;-0.40774711910734407;-0.02383559884791131
A;1;4.5;0.42360435070225577;-0.05912518264100175;0.12841216072714445;0.043775201526369045;-0.1488300173813233;-0.015621168764961446;-0.43159122862497945;-0.14283138987414024;-0.1854455450385366;-0.005473364788004531;-0.4109634425607176;-0.18775916781212487;-0.18052180149264085;0.018061166527329586;-0.4158390144561084;-0.020271127689076796
A;1;4.6;0.4220219415234885;-0.06047081910131835;0.13035642755569388;0.04543347528469033;-0.15493798035120854;-0.016530871132019342;-0.4349287721212898;-0.1422534687397521;-0.1952493442395138;-0.00593540334363496;-0.41868962015537825;-0.18772815665981657;-0.18904171016308524;0.017997587087895894;-0.42426656502567717;-0.017031718984804378
A;1;4.7;0.42033793842591827;-0.06144984035478984;0.13124641469788223;0.04650459543140739;-0.1612451773487802;-0.017601846179895908;-0.4384577410060606;-0.14176709395225817;-0.20491516259289355;-0.0063631844995493125;-0.42617008849308036;-0.18739992430806396;-0.19741013504906757;0.018103463116646346;-0.4330909128620988;-0.014192162092582006
A;1;4.8;0.41861433795348546;-0.06207565278141036;0.13120637299327154;0.04704096505705957;-0.16769606476690235;-0.01880933700596099;-0.44210663063121647;-0.14136504765881241;-0.2143870131094232;-0.0067447205072621585;-0.43338850212227165;-0.186800032760285;-0.20557622189854197;0.018383604609446103;-0.44222577910846983;-0.011709380015068493
A;1;4.9;0.4168985665323568;-0.062391264514480405;0.130431284829144;0.047132855044531574;-0.1742259148030687;-0.020117777585332952;-0.4457826780977685;-0.14103425149506865;-0.2236176106834371;-0.00706739543397461;-0.44033721976786033;-0.1859712154848321;-0.21351234412598163;0.018830635375772342;-0.45158090996323796;-0.009524489236787392
A;1;5.0;0.4153031397156939;-0.062412577530576385;0.1291501779159816;0.04686655226542724;-0.18073502490847382;-0.021487060624241217;-0.4493407598648549;-0.1407545569192692;-0.23251392073685473;-0.007313759832375588;-0.446993599386345;-0.18495246773572127;-0.22109468708525526;0.019464503969287783;-0.4609638675092471;-0.007537591395637477
A;1;5.1;0.4139444900998166;-0.06216696142629852;0.12763830190286996;0.046349732461922866;-0.18711153959794657;-0.022869782470890776;-0.45261261101178185;-0.14050073370842409;-0.24097899690414515;-0.007464909499688588;-0.4533363356682134;-0.1837913731381251;-0.22819543771474482;0.020303053741953292;-0.4701593806454145;-0.005631027428328661
A;1;5.2;0.41281840737552766;-0.06168125927833845;0.12594338188340526;0.04561788037234438;-0.19334417351446653;-0.0242530845216109;-0.45560175520063595;-0.14027449214645404;-0.24900815098935247;-0.007516066200471627;-0.4593629925854561;-0.18250648947091008;-0.23485829539116665;0.02132621022685166;-0.47918994606929566;-0.0038126154625763853
A;1;5.3;0.4119170837831527;-0.06097152228530556;0.12407008556449295;0.0446858017257985;-0.199433386121326;-0.025631516576874347;-0.45833566408232684;-0.1400820785122967;-0.2566020628676604;-0.007464543727133233;-0.46507142898215825;-0.18110833232935697;-0.2411292375362626;0.022515937399960162;-0.48809817054179394;-0.0021065391859740323
A;1;5.4;0.41123227288052355;-0.06008662354206207;0.12212974314235048;0.043623129173631536;-0.20535535121068094;-0.026981605972007827;-0.4607908354742474;-0.13991896369656232;-0.2637573496574017;-0.007304091801715096;-0.47046371104740725;-0.1796295390938507;-0.2470629411882852;0.023843953311001975;-0.4968902834408775;-0.000500800799103196
A;1;5.5;0.4107462793328436;-0.05907542797486487;0.12021786216966657;0.04249415960382885;-0.21109351721490555;-0.028282572062196643;-0.4629564461012663;-0.13978199149406834;-0.2704784059255303;-0.007029805272774858;-0.475543708736585;-0.178100263460804;-0.2527260850998774;0.025279180890497077;-0.5055876330340805;0.0010087008191161928
A;1;5.6;0.4105926483797555;-0.05793126637089996;0.11852508154571417;0.041355541475110336;-0.21655145933335973;-0.029503874492498028;-0.4647048899148194;-0.13965491120136875;-0.2766662192539293;-0.006627426507640699;-0.48029004437385403;-0.17655015796325557;-0.2579546766873113;0.02685552700777638;-0.5139856005334336;0.0025147366929085813
A;1;5.7;0.41095752543372566;-0.05663754908523444;0.1173036527089808;0.04027744061809324;-0.2215985327037675;-0.03060628670833765;-0.4658534685647613;-0.13951419624419792;-0.28218457153797516;-0.006078330418571198;-0.4846735628409551;-0.17501514511360217;-0.26250888882848145;0.02862599441929703;-0.521792862739888;0.004150439067636125
A;1;5.8;0.41192833572637255;-0.055178440084463265;0.11663873138557435;0.039277214390837756;-0.2261789855480174;-0.03157606726129192;-0.4663454408190262;-0.139352718137272;-0.28697068942424586;-0.005374484221982279;-0.48867729912856817;-0.1735061020818902;-0.266283331552966;0.03061335826274325;-0.5288870109475532;0.005961810958620362
A;1;5.9;0.41360443202642294;-0.053532391434858884;0.11661984699435557;0.038369200928417335;-0.23023154965529713;-0.03239970549155036;-0.46611659663012794;-0.1391623408038951;-0.29095461722732807;-0.004507732086193705;-0.49228301026478327;-0.17203290421946882;-0.2691519016825019;0.032846348206981624;-0.5351267433867637;0.008001613023248755
A;1;6.0;0.41611915580800574;-0.05171188040060448;0.1174929137200893;0.037644971584291476;-0.23364720007594997;-0.03303548944274315;-0.4650081685471319;-0.13892088159153015;-0.2940357545549972;-0.0034617292369718555;-0.4954712080882775;-0.17063801019059;-0.2709627820869338;0.03535033748988248;-0.5402910825780642;0.010383345869034333
A;1;6.1;0.4195636641278746;-0.049739751926833;0.11946267632175545;0.03719150963958695;-0.23634185566257315;-0.03344661221023504;-0.46289854681132514;-0.13861014725872867;-0.2961430872118722;-0.002223205027993558;-0.4982280142085287;-0.169359961172308;-0.2716273953172026;0.03813374400153524;-0.5442225680650443;0.013193866513293795
A;1;6.2;0.4241069162253206;-0.04762144832290849;0.1228204687160579;0.03710566445080232;-0.23818338517044602;-0.03358752862121506;-0.4595936945870527;-0.1382027590990651;-0.2971535774197367;-0.0007748818838946292;-0.500533108368888;-0.16824565848144069;-0.27093104227958165;0.04123796121515699;-0.5466353100419736;0.01657515722416436
A;1;6.3;0.42989981317674175;-0.045364941102318035;0.1278332919291465;0.0374803074053367;-0.23905147116621173;-0.03341544291081089;-0.4549164181227896;-0.13767333697782647;-0.2969569150221467;0.0008990910481303516;-0.5023677876154764;-0.1673388246902201;-0.26868662323689296;0.04469725285424753;-0.5472717392517605;0.020656881049677
A;1;6.4;0.43685872737694087;-0.04297863047813433;0.13437104174258963;0.03828465619492283;-0.2390018071049358;-0.03294658876413781;-0.4489832708226862;-0.1370337709509375;-0.2956143439929644;0.0027911236260651506;-0.503737341534686;-0.16662156143707385;-0.2650305154605359;0.04847332634779544;-0.5462703331696153;0.0253658208342733
A;1;6.5;0.44484285743478136;-0.04046697907373886;0.14219925242543674;0.03944865976087053;-0.23813509071214156;-0.03221510763728297;-0.44198876449313573;-0.13630551641915112;-0.29323135917407583;0.004885978692071191;-0.504655598567858;-0.16605831805353866;-0.26016688248139275;0.05251405184369462;-0.5438626962806357;0.030577456465098685
A;1;6.6;0.4537037663218797;-0.03784799453070553;0.15109624728198856;0.04092997745835758;-0.2365499652510792;-0.031245689750439176;-0.43410902479641056;-0.13550868891301615;-0.2899126489508337;0.007172387474245312;-0.5051307916407559;-0.16562021064825494;-0.2543401637641969;0.05675319558479863;-0.5402969920661471;0.03617151740862923
A;1;6.7;0.46325768228581676;-0.035140504509519666;0.1607836077570024;0.04266897101265599;-0.23437104015207844;-0.030071624032640187;-0.4255623861254305;-0.134668490384529;-0.2857890944789112;0.009635390835807556;-0.5051753294787726;-0.16526955472550942;-0.24784259071334347;0.06111362009568433;-0.5358787592792114;0.04199903150590201
A;1;6.8;0.47344703342622996;-0.03234543015577529;0.17116936014210538;0.04462772765905232;-0.2316373337699087;-0.028711658344886537;-0.4164430629307718;-0.13379244778200938;-0.28091131283322035;0.012263203794546484;-0.5048035999915648;-0.16499090208305933;-0.2407350135138282;0.06557702106131469;-0.5306829196823912;0.048010453251727814
A;1;6.9;0.4842449214961819;-0.029463910969171003;0.18221355349271828;0.0467854275648496;-0.22836460710396445;-0.027176798547865033;-0.4068039396453731;-0.13288305027483283;-0.2753079222844299;0.015046551939106756;-0.5040277734231822;-0.1647770858770805;-0.23303394542190503;0.07013479633828146;-0.5247307103150725;0.05418419888277315
A;1;7.0;0.4955420948790774;-0.026495120867616517;0.19373666883763896;0.0490724724966749;-0.22463195530222357;-0.025500534548723586;-0.39680718615777266;-0.13195531730861543;-0.26906919793131223;0.01796785127848377;-0.502868723156638;-0.16459770836733778;-0.2248666417813432;0.07475473975242464;-0.5181805297046971;0.06042736063591825
A;1;7.1;0.5072358958741408;-0.023437913601352278;0.2055713675979689;0.05142118088990877;-0.22051346140450967;-0.023715641875634574;-0.3866059280200327;-0.13102303379126123;-0.262281766127602;0.021009072116290994;-0.5013487621284352;-0.16442405807413873;-0.21634495022826172;0.07940834856263779;-0.5111759233666673;0.06665387944703838
A;1;7.2;0.5192129511836407;-0.020315410021225944;0.21756206838008119;0.05382268098922793;-0.216078655932316;-0.021833834688609777;-0.3763099012890079;-0.13009901748385033;-0.25502413089947673;0.02416222072174712;-0.49947302011645434;-0.16423976707504462;-0.20766973343596096;0.08403656583032326;-0.5039005911121146;0.07278397959219429
A;1;7.3;0.531333816481161;-0.01715793976056279;0.2295190920156216;0.05627406144146452;-0.2114133368203568;-0.019865912138519626;-0.3660452919589243;-0.12919888335998042;-0.24738888439612516;0.02742087676500926;-0.4972423891072335;-0.16402584979668866;-0.19910389608791323;0.08856349267246033;-0.49658967224276296;0.07872074402892348
A;1;7.4;0.5435397083562723;-0.013987453677540174;0.2413843479969202;0.058787759677598306;-0.2065453535035484;-0.017813941010563994;-0.35585287870400073;-0.12832657422055682;-0.2394189910378408;0.030777933456637818;-0.49466539824591393;-0.16378044364840694;-0.19074573186087118;0.09295420775085717;-0.48932057403814433;0.08443413134787203
A;1;7.5;0.555773388254714;-0.01082833947870343;0.2531052949783126;0.06138321059528851;-0.20150044950067958;-0.01567756265355591;-0.3457645071899913;-0.12748552574873795;-0.23115531123655408;0.03422706303044798;-0.49174963774622604;-0.16350375568697206;-0.18269670934363358;0.09717206527774058;-0.4821693315910567;0.08989778784740476
A;1;7.6;0.567874399011191;-0.007701081135615517;0.2644501475529122;0.06402075484052805;-0.19638661969480076;-0.013482185846595662;-0.33595593016852643;-0.12669392535083546;-0.22271290810422073;0.037756639196079966;-0.48850378587903887;-0.1631646650275682;-0.1752236062294621;0.10114553377134072;-0.4753962835174619;0.09499429684435068
A;1;7.7;0.579692649955402;-0.0046211390907027194;0.27520273838880804;0.06665128541237353;-0.19130646918281435;-0.011256423749133937;-0.32660145099137505;-0.1259682574573162;-0.21420376359357896;0.04135293531240514;-0.4849412697768889;-0.162731799347533;-0.16855705165241552;0.10481393879427614;-0.4692351324935755;0.09961376612310024
A;1;7.8;0.5910535775324046;-0.0016141885394804767;0.28510739783247185;0.06924230850305069;-0.18637774096121618;-0.009024297954084659;-0.31787806924072903;-0.12532939941037835;-0.20575053569995205;0.045004703504749166;-0.48106945134780776;-0.16217395352598984;-0.16300049624704105;0.10809480548098582;-0.46397836123390324;0.10363010021535857
A;1;7.9;0.60179142766055;0.0012962376441731926;0.29392360862447475;0.07175930356760674;-0.18171319370520322;-0.006810170425215034;-0.30995740838160746;-0.12479657962912682;-0.19747165296878144;0.04870053720072587;-0.4768970976687976;-0.16146097538776694;-0.15883714967411056;0.11091162754492823;-0.45990017597859634;0.1069246844974665
A;1;8.0;0.6119252911182684;0.004103991776321703;0.3017235049469775;0.07420420728502997;-0.17728972789362984;-0.004617955477772107;-0.30281497659820467;-0.12436135887108701;-0.1893712501000202;0.05242720215698071;-0.47245156943076605;-0.16060325223397864;-0.15596666497498024;0.1132834114075294;-0.4569073380471922;0.10953330539977157
A;1;8.1;0.6215296624050648;0.006805946608388513;0.3086690667749368;0.07659599077007595;-0.17304372504633392;-0.002443602573714898;-0.2963592068068577;-0.12400809971203763;-0.1814183663995781;0.05617103429696435;-0.46776575195446224;-0.15962516134871585;-0.15418013765879657;0.11525480355820461;-0.4548018455959122;0.11153855135142354
A;1;8.2;0.6306571910642145;0.009405481387514403;0.31488944782642836;0.07892637814999803;-0.16893357681574983;-0.00029246419665884815;-0.29055248226708574;-0.1237218099993811;-0.17360030435061624;0.059919545880046776;-0.4628695928114208;-0.1585397218236615;-0.15330516399685923;0.1168670169487438;-0.4534232003259948;0.11300243000644761
A;1;8.3;0.6393859440179934;0.01190858582247678;0.3205573706879923;0.08119160483739973;-0.16489917374492435;0.0018326420451701964;-0.28532944522245085;-0.12348352516921857;-0.16588880159941155;0.06365983883951021;-0.45779593689535414;-0.15736543160691774;-0.15311478822409352;0.11817517313924908;-0.45255942284412054;0.11400876027436713
A;1;8.4;0.6477393671231431;0.014305058489864741;0.3257324536535524;0.08340778736810872;-0.16091874742099854;0.003931756073733972;-0.2806387781017792;-0.12328860875903569;-0.15828471803745714;0.06737832577332536;-0.4525740621553256;-0.15611821129678383;-0.15351795161668758;0.11919257946368722;-0.45212920011071933;0.11459701995900984
A;1;8.5;0.6557200697036043;0.016583675715360346;0.3304343886964185;0.0855852105964674;-0.15698888004913414;0.006002163127727833;-0.27645395409201967;-0.12313604731992012;-0.15080243216798372;0.07106243406992974;-0.44723019880022896;-0.1548088835076067;-0.15447313075306912;0.1199207976825245;-0.4520985812805014;0.11478834634536428
A;1;8.6;0.663387605646844;0.01873536670422471;0.33479340531998325;0.08775326649156456;-0.15305635147783292;0.008049522460777503;-0.27267232540219855;-0.12301449262790864;-0.14341822750205502;0.07469724809538913;-0.44179819540070486;-0.15346279904253635;-0.15580370832546198;0.12039412877669609;-0.45230451854680087;0.11465669640501819
A;1;8.7;0.6708005852607091;0.020751127255665747;0.338932304940859;0.08994149140101415;-0.14907090099747045;0.010079460598585221;-0.2691912981628928;-0.12291372325428096;-0.13610924127765323;0.07826818036916805;-0.4363115573078389;-0.15210527873593094;-0.15734041297346657;0.12064495228089056;-0.4525918892437879;0.11427430476222522
A;1;8.8;0.6779861359649813;0.022638685480274923;0.34292509870594046;0.09212244297129679;-0.1450227084007718;0.012079986048747493;-0.26601996800904093;-0.12282249557861213;-0.1288816033540101;0.08176716538680573;-0.4307922936363342;-0.15073906846637009;-0.15898406231153928;0.120701473825092;-0.45286922994775036;0.11367899930469827
A;1;8.9;0.6849712470918492;0.024410592023252242;0.3468587495312301;0.09425597305561961;-0.1409022046141697;0.014035535983171421;-0.2631846800038131;-0.12272593963025624;-0.1217427054324709;0.08518720294138848;-0.42526052011211224;-0.14936259669933527;-0.16062472851312215;0.12059887633079969;-0.4530333070528183;0.11290960159722196
A;1;9.0;0.6917599993994186;0.0260728793274132;0.35073924626673847;0.09631119955993839;-0.1367263013572;0.015931744231804323;-0.2607172379001286;-0.12262152623798173;-0.11471476882466902;0.088521243365701;-0.41973588518304084;-0.14797458794723894;-0.1622353743861158;0.12034591212813384;-0.4530665629437278;0.11197863976440736
A;1;9.1;0.6983535481533423;0.027633888761707137;0.3545654008393706;0.09825119622535938;-0.13251719652012817;0.01775249952606206;-0.2586604645116095;-0.1225067870007912;-0.10782237623118363;0.09176354562229516;-0.414235683094927;-0.14657114328776277;-0.1637989379286413;0.11995073400668765;-0.452960695235058;0.11089488778067835
A;1;9.2;0.7047898780394748;0.0290968679293786;0.3584691547897956;0.10006559828796746;-0.12823810217592602;0.019491125793740238;-0.2569781985775723;-0.1223627931741813;-0.10105718957744436;0.09490279916783173;-0.4087852856954841;-0.1451603546571496;-0.1651500520086122;0.11945831607263369;-0.452560653467156;0.10971872375236025
A;1;9.3;0.7111063735894554;0.030460455798857033;0.36257912549902915;0.1017563205555625;-0.12384863531153378;0.021144253005697777;-0.25561367375098865;-0.12217233165572683;-0.09440869425334242;0.09792597940779668;-0.40341235086436367;-0.14375400626523582;-0.16612197104999815;0.11891098380127252;-0.45171258997158326;0.10851202052072262
A;1;9.4;0.7173531117834608;0.031736336790268105;0.3670410149192005;0.10330075156638463;-0.11931221247201584;0.022703066204996958;-0.25454132313964717;-0.12191341602995465;-0.08786171613889238;0.10082624096426329;-0.3981355758620353;-0.14235695732489972;-0.16653994562697605;0.11836151658021343;-0.45024935030458124;0.10734110553880472
A;1;9.5;0.7235715345364451;0.03293297972321074;0.3719914566397593;0.10468169092382595;-0.11459376121490727;0.024159769995626412;-0.2537307769135957;-0.12156488108584185;-0.08140374125918903;0.10359575393901199;-0.3929735965717134;-0.14097388648536047;-0.1662384984494114;0.1178594997352147;-0.4480137586468853;0.10626797755893502
A;1;9.6;0.7297478454173456;0.03404292258793706;0.37737000162006584;0.10590203437904133;-0.1097214602338461;0.0255083711136308;-0.2531679885378928;-0.1211364366210379;-0.07506046675932865;0.10622453865587733;-0.387948248241905;-0.1396108299944787;-0.16524600242705123;0.11739089222835242;-0.44505310235170104;0.10528969173715996
A;1;9.7;0.7358609356200674;0.03505964170165221;0.3830603566608479;0.10696337826962354;-0.10474432420993907;0.02674236997511148;-0.25285051096373845;-0.12064619970535961;-0.06886408269869371;0.10870547110402828;-0.38307725241756785;-0.13827254623015595;-0.16364899143640876;0.11692560580478162;-0.44147386696680435;0.10438681936886685
A;1;9.8;0.7418525001884966;0.035958842479764996;0.3889653142939382;0.10789291301410442;-0.09969574715349694;0.02785973839975231;-0.25274794493603103;-0.12010669543445474;-0.0628564614672289;0.11102224711495179;-0.3783849680193665;-0.1369639870818835;-0.16151473953196493;0.1164348147106753;-0.43736438874619754;0.10353529748512136
A;1;9.9;0.7476574623096051;0.03671422545181269;0.39496118058210605;0.10872127585358005;-0.0946173085328681;0.02885909216456728;-0.25283018123351386;-0.1195346997808917;-0.05708361868991041;0.11315858003227852;-0.3738956515603524;-0.13569044222532245;-0.15893670585673902;0.11588129060181807;-0.4328408197580007;0.10270251245026918
A;1;10.0;0.7532935454113066;0.03733620490225409;0.4010039311896394;0.10943405625599079;-0.08953914517162076;0.029733476184636842;-0.2530919089195054;-0.11893595865758932;-0.05154951826329324;0.1151170058991644;-0.36961091973273685;-0.1344529456069159;-0.15593956459004232;0.11526257873331236;-0.42793854645461593;0.10189831109408898
A;1;10.1;0.7587782101705143;0.03783611721796731;0.40707525790779986;0.11001684052755456;-0.0844829277240624;0.030476396143037654;-0.25352422339839276;-0.11831058001850625;-0.046253215995022856;0.11690097745912187;-0.3655281017820986;-0.1332502226217347;-0.15252755300103438;0.11458481380516972;-0.42266896060663406;0.10113862639796034
A;1;10.2;0.7641334135144433;0.038225905035405905;0.4130881222425309;0.11045303883296276;-0.07949377919121403;0.031080655964311532;-0.2541289462345384;-0.11767365807692798;-0.04120277816571516;0.11851424705758884;-0.3616515789322925;-0.13208610669586385;-0.1487636186434953;0.113832508890511;-0.4171108065081306;0.10042283010069397
A;1;10.3;0.7693836033704393;0.038519589539717014;0.4189622028976707;0.11072512913364063;-0.07461519992490118;0.03153945706013506;-0.25490710806769545;-0.11703843473520159;-0.03640215043049366;0.11996260745989762;-0.3579811744064534;-0.13096301036861835;-0.14470800998145705;0.11299311283188151;-0.4113377763230428;0.09975254628991248
A;1;10.4;0.7744326488178981;0.03868339522011999;0.4246356424175728;0.11087710919220495;-0.06986461856462789;0.031854946509673354;-0.2558117829579256;-0.11640472639248056;-0.03189299868183504;0.12122875007572986;-0.35452890038234397;-0.12987722607952357;-0.1404130069700411;0.11204827576952336;-0.40541407160848486;0.09909994694914248
A;1;10.5;0.7791517396012964;0.03866873287613348;0.4300341784714048;0.11097069186718578;-0.06525699719628442;0.032031680013600905;-0.2567842854949349;-0.11577361251375429;-0.02773195192429334;0.12228717838935665;-0.3513165160094731;-0.12882642669728384;-0.13594005778556006;0.11097160907450654;-0.3994174332607692;0.09842421473370733
A;1;10.6;0.7834659205141845;0.03845330665627689;0.4351477133592274;0.11104246465086565;-0.060795804613878346;0.03207284516914477;-0.2577726270022085;-0.11513372299865132;-0.023938026625630826;0.12312952576706149;-0.3483369378112098;-0.12780138894496318;-0.13130515887374994;0.10976462381819418;-0.3933644396491811;0.09771695847564255
A;1;10.7;0.7872863065720486;0.038010022220329454;0.43997062300650835;0.11113614187708487;-0.056480900844512405;0.03198310186076814;-0.2587193785537023;-0.11447133660918762;-0.020532801158754665;0.12374589751168052;-0.34558186588386786;-0.12679133532843512;-0.12652445350203578;0.1084290555207259;-0.387270008667957;0.09696638123237333
A;1;10.8;0.7905534876144928;0.03731230601959057;0.44440662908101913;0.11128354676725571;-0.052341252650952796;0.03176321155962025;-0.25958863276686905;-0.1138017723547522;-0.01755792436839343;0.12411890045681684;-0.34308062322850397;-0.1258043236462436;-0.12166421164714514;0.10693501762596958;-0.3812270720046902;0.09614329982088599
A;1;10.9;0.7932460370556633;0.036347679376644404;0.4483672193023587;0.11150020807235261;-0.0484078315478218;0.03141232090754009;-0.2603533322061393;-0.11314236773563291;-0.01504040255246153;0.12423811696481035;-0.34085821494817736;-0.12485054315949995;-0.11678091264212309;0.10525812059930884;-0.3753186878705437;0.09523093198127697
A;1;11.0;0.7952523752340319;0.03507278432610095;0.4517453196702057;0.1118405096483488;-0.044707521265472394;0.030935146228043386;-0.2609675657693966;-0.11250456076512894;-0.013036437519083677;0.12408099795151628;-0.3389406116452758;-0.12393251544912864;-0.11196704559925585;0.10336116804488649;-0.36965849106871396;0.09418043321113334
A;1;11.1;0.7964852607543289;0.033451657796252476;0.4544426969016895;0.11234981066123018;-0.041265999748489435;0.030335665416688862;-0.2613893281626076;-0.11190151711924301;-0.011594176294853042;0.12362781147942581;-0.3373549569822556;-0.12305574694151833;-0.10730270925632368;0.10121058885627399;-0.36434931568900986;0.09295126726155578
A;1;11.2;0.7969984351916075;0.031513378890990484;0.45651828294383456;0.11301197719311729;-0.038079645191594125;0.02961435453097927;-0.2615881315962829;-0.11131758117115975;-0.010668108628697937;0.12289977727555801;-0.3360618089862948;-0.12221178954990464;-0.10274817307667305;0.09884105530139564;-0.35933934049789684;0.09158688873434828
A;1;11.3;0.7968524217815274;0.029296704267947504;0.4580753126009247;0.11380632642957389;-0.03513448696758381;0.0287731416229704;-0.2615316222645996;-0.11072379171382707;-0.010192254171604631;0.12192856811045605;-0.33499497917783483;-0.12138223608086474;-0.0982455092395984;0.09630490132225678;-0.35454111940630995;0.09014398077229702
A;1;11.4;0.7962139364134435;0.026862707265269403;0.4592050724644281;0.11467388515016719;-0.03242387722760398;0.027807356502330016;-0.2612086480785525;-0.11011556724865112;-0.010090494614017231;0.12074447256050558;-0.3341301240186114;-0.12057547476632369;-0.09369444711532537;0.0936503874565564;-0.34985559596899396;0.08870395712661727
A;1;11.5;0.7952709324749554;0.024282115389142156;0.4600210552193804;0.11554678573846422;-0.029936716350761117;0.026712127796981733;-0.26061035201956084;-0.1094845407817413;-0.010272629095544161;0.11938403436924006;-0.3334330819521423;-0.11979806619969136;-0.08897864385399856;0.0909352547481328;-0.345162675416927;0.08735976319746186
A;1;11.6;0.7939708981875091;0.021555410587267954;0.4605720733401757;0.11644971517986358;-0.027665687685123785;0.025496256783696047;-0.2596954281701205;-0.10880165929441077;-0.010714884910033362;0.11786480798766519;-0.33284156735834625;-0.11902375738098758;-0.0841209437134669;0.08818428037210024;-0.3404491040317428;0.0861156910442804
A;1;11.7;0.7922494202479964;0.018674934273393617;0.4608869459429279;0.11741341075924705;-0.025606760681736063;0.02416911117106668;-0.2584245437787338;-0.10804412816356113;-0.011406322444207362;0.1161982884402466;-0.3323072034339587;-0.11823103992508877;-0.07915796283642162;0.0854119120194774;-0.3357217384850939;0.08496472907660468
A;1;11.8;0.790064738957275;0.015652294503936126;0.4610503433237154;0.11845732848841095;-0.023743544886389856;0.022740658850381124;-0.25675336936900006;-0.10717121258447726;-0.012301599596089119;0.11441270875705811;-0.33174108877165853;-0.11738415286807236;-0.07409540530516256;0.08265932847468349;-0.3309371854151344;0.08392472808992091
A;1;11.9;0.7873616627062985;0.012494455216800482;0.4611422675827219;0.11960614690855653;-0.022059850689938543;0.021221969700509824;-0.2546382856102527;-0.10614220059858859;-0.013360362383581403;0.11253482152004501;-0.33105485674310575;-0.11644650991824079;-0.06894938635024683;0.07996430274577593;-0.32606058435322893;0.08300649069622024
A;1;12.0;0.7843586692485829;0.009263799422894348;0.4612290944813964;0.12078609490411463;-0.020552509174500244;0.0196067970773397;-0.25208900791987165;-0.10497737718880185;-0.01451785088231361;0.11058516599669765;-0.3302735296552459;-0.1154521534609314;-0.06360859535106922;0.07735781444873968;-0.32100882564490796;0.08228840307777041
A;1;12.1;0.7813705475513375;0.006047144987370245;0.4613880745811496;0.12188826723563695;-0.019218649322267467;0.017883394203420444;-0.249129303373123;-0.10371118007161684;-0.015689862181538672;0.10858762614653905;-0.3294453852932202;-0.11445323244729533;-0.05790991270132828;0.07487715472221756;-0.3156681794215208;0.08187911467192421
A;1;12.2;0.7785321588033502;0.0028777948382572305;0.4616460607413284;0.12287066226941512;-0.018061243240893532;0.01605034436204633;-0.24576858862769324;-0.10236497327506733;-0.01684567041405849;0.10655170300096817;-0.328601462509595;-0.1134790294013337;-0.0518056890741283;0.07253121867065904;-0.31001174749843496;0.08181589450281823
A;1;12.3;0.77600563556806;-0.00020632122119002005;0.4620266106962223;0.12368148602023066;-0.017084354315450412;0.01410473235339893;-0.24202431173994032;-0.10096765928867502;-0.01795389566266614;0.10448545016452204;-0.3277871427436878;-0.11256716025829672;-0.04523724507367444;0.07032639012249176;-0.3040107118117854;0.08214055265515263
A;1;12.4;0.7740049404678855;-0.0031318193984066767;0.4626267355808311;0.1242483738148712;-0.016274047376111156;0.012042370110735945;-0.2378941412402078;-0.09952228635332183;-0.01892399026403524;0.10242271800445923;-0.3269856070170949;-0.11173434925650305;-0.038081349995843006;0.06831279138622204;-0.2975562774906946;0.08294378911116107
A;1;12.5;0.7726645672243384;-0.005842881433212543;0.4635382442717315;0.12452790776995659;-0.015614371410329397;0.009864123934590019;-0.23336300450252878;-0.09801738887833178;-0.019676033429433915;0.10039758974418422;-0.3261522022425112;-0.11097892621760685;-0.0302574987524018;0.06653838483217989;-0.2905623273490079;0.08429287350391768
A;1;12.6;0.7722943947654493;-0.008246245439765598;0.46486554742100505;0.12441194079605644;-0.015091166217972685;0.007560650626785126;-0.22845372807838693;-0.09647576940081537;-0.02010920596948651;0.09844275630934263;-0.325308629125856;-0.11034192323607339;-0.021593626263615384;0.06505287851056396;-0.28289650446251713;0.08630133209433843
A;1;12.7;0.7731654893348416;-0.010256969460406662;0.4667067539018248;0.1238066015563204;-0.014689506469951041;0.005124981387623961;-0.22318262288185586;-0.09491354723737233;-0.020127802003768736;0.09659097441218645;-0.32446277327803497;-0.10985521702997847;-0.011939079317778045;0.06390435738785216;-0.27444019129639585;0.08907086635865413
A;1;12.8;0.775106648023911;-0.01191911618724495;0.4690377043897387;0.12278159063543903;-0.014411146354769144;0.002574894363428726;-0.21752694488559499;-0.09331171833504026;-0.019763623059484203;0.09484226723659539;-0.32357181998473283;-0.10949088857151601;-0.0014288963948549949;0.06307434531930856;-0.26528501331504906;0.0925314093444709
A;1;12.9;0.7778630413328038;-0.013307439286666778;0.4717981103065414;0.12143702325727279;-0.014263510916016742;-6.715856499628359e-05;-0.21146917734992332;-0.09165366499560434;-0.01908615409586112;0.0931839193676316;-0.32260499633936934;-0.10921857238566357;0.009739495830112688;0.06252088722445981;-0.25557753227761904;0.09657007709850429
A;1;13.0;0.781098666275919;-0.014498497674439559;0.4749409554620341;0.11990372468028365;-0.01424534932189303;-0.002773916371489271;-0.20494940626234825;-0.08988772236633746;-0.018143085622057242;0.09161869913474607;-0.3214513258422915;-0.10896747068866919;0.021345863387815633;0.062224062259443436;-0.24546013608260164;0.10107327310853709
A;1;13.1;0.7844143002749862;-0.01558726033918223;0.4784019955266956;0.11833580897176788;-0.014357280499929459;-0.005514503773826007;-0.19790322010045536;-0.08795723200588679;-0.017000272960650875;0.09014476013572281;-0.3199924264434264;-0.10865807982053255;0.033129018466644844;0.06215430985683135;-0.23510518158202665;0.10590234435127988
A;1;13.2;0.7877811945931086;-0.01659531324852681;0.48215836292491954;0.11674768946063407;-0.014600506433030347;-0.00827883136045049;-0.19036450842363983;-0.08588232008867003;-0.015690078001066254;0.08875251038491871;-0.3182689847468012;-0.1083090247814189;0.04502276636955482;0.06228096065886657;-0.22458317946857864;0.11100910801499353
A;1;13.3;0.7912314422804743;-0.017525595169315178;0.4862018599519873;0.11513087679246992;-0.014972354871190419;-0.011060230245051983;-0.18237387819017137;-0.08368772352721265;-0.014226276939801608;0.08743714423351001;-0.31632746016936863;-0.10794642750839856;0.05700242863965155;0.0625827242033381;-0.2139372726862936;0.11636872778796015
A;1;13.4;0.7946530929972493;-0.018428685330647898;0.49048243367673106;0.11353092842491375;-0.01547983363940908;-0.013843948386275784;-0.17396463846295074;-0.08139219311119872;-0.012674034445669946;0.08617900866639427;-0.3142115843010611;-0.10758266580775722;0.06893979662783067;0.06300983704456398;-0.20328250056049768;0.12189446251773983
A;1;13.5;0.7979610738757614;-0.019349331711821627;0.49495214944730836;0.11198283071262072;-0.01612869881435053;-0.01661675651614747;-0.16517873768060642;-0.07901994526010903;-0.011095562344188181;0.08495797053831389;-0.3119761924974247;-0.10723686786563036;0.08072267344872408;0.06351256553726214;-0.1927271599760889;0.12750581847864462
A;1;13.6;0.8008664479302343;-0.020337914063427665;0.4995819377533488;0.11059905173910112;-0.01690525101175311;-0.019354192691795724;-0.1559504457561669;-0.07651043630570298;-0.009502365281750969;0.0837901555906857;-0.3094811717781889;-0.10682905327045589;0.09218146705022967;0.06409286530873848;-0.18237918920473195;0.13311909031261138
A;1;13.7;0.8029693957737987;-0.02146122898905478;0.5043386886230303;0.10953451798219538;-0.017793189508136464;-0.0220256760958506;-0.1461742375368562;-0.07377267153295675;-0.007904250532163815;0.08269959256421355;-0.30651958852901995;-0.10624166810083846;0.10309479344581884;0.06476181944655046;-0.1723651098347494;0.13863167423046496
A;1;13.8;0.8041474921776146;-0.02273065391774942;0.5092171305989197;0.10883722099125759;-0.018772494332420564;-0.024616094869974958;-0.13582632869920275;-0.07077453392508204;-0.0062870785936475215;0.08170330627786537;-0.3030082467286288;-0.10543240236991913;0.1133942731794928;0.06552837397916944;-0.1627406940893108;0.1440062070912278
A;1;13.9;0.8042666039836739;-0.024155719152413102;0.514214457456295;0.10855947566680735;-0.019820202813491505;-0.02710987333588122;-0.12487445782026008;-0.0674765918658804;-0.0046299001672416296;0.0808220458440223;-0.2988465824811817;-0.10435034691481349;0.12301254986273147;0.06640736310302842;-0.15355837934130445;0.149207676928659
A;1;14.0;0.802956229033934;-0.025818687820676534;0.5192826259993524;0.10884627029498883;-0.020933179049619;-0.02947828350862114;-0.1132484033065948;-0.06381739675307019;-0.002979952618225923;0.08006110345957218;-0.2938992815983026;-0.10290987860014855;0.13171017675974106;0.06738103722444855;-0.14495970649316092;0.15411485666926472
A;1;14.1;0.7999208084904268;-0.027794528780337835;0.5243749271538114;0.10981400424288923;-0.022112070288192953;-0.03169681547408931;-0.1009099435725247;-0.05975986593239613;-0.0013924205213431406;0.07941736503168784;-0.28808589858797173;-0.10105458157364211;0.1392770377538861;0.06842075441842166;-0.13707546223018507;0.1586149359908715
A;1;14.2;0.7947128737027933;-0.030172285911373553;0.5294370213239361;0.1116364508991774;-0.023347202388050547;-0.033733219172500384;-0.08775854055045151;-0.05521755246169624;9.312684369255919e-05;0.07890381166900529;-0.28121498993290217;-0.09866761441629102;0.14544976610161697;0.06951989792909741;-0.1300582268731132;0.16257776044832983
A;1;14.3;0.7869238274407726;-0.03303660800934338;0.5344190330784935;0.11447313393939629;-0.024631142028713526;-0.035557568898655134;-0.07370693121572369;-0.050114879788536904;0.0014349431607207919;0.07853010522272186;-0.27311951663000933;-0.09564542478707949;0.14998053584077908;0.0706682305576134;-0.12404975923744033;0.1658796948228125
A;1;14.4;0.7768016939895572;-0.03634263630150958;0.5393394154315887;0.11822970967744695;-0.02594871114528985;-0.03717612666033965;-0.0588642531264858;-0.0445173525465119;0.0026454857123265896;0.07828834411786278;-0.2639305284015263;-0.0920654942422443;0.15298098948580652;0.07184858353145263;-0.11902603958669822;0.1685497626289063
A;1;14.5;0.7647677119303733;-0.04000502964692387;0.5442346145015842;0.12274418834212986;-0.02727715828122612;-0.038605241588197;-0.043385970727910284;-0.0385216064178131;0.0037616963087749866;0.07817002572257614;-0.2538425193475389;-0.08804590121306877;0.15467149986486817;0.07304946210573826;-0.11491453277429553;0.17066383430159382
A;1;14.6;0.7512119796329602;-0.04396663528537381;0.5491428835247127;0.12787144447110155;-0.02861428753617723;-0.03985925910437427;-0.027429233907612094;-0.03223543646534255;0.00478298924324605;0.07815350625835116;-0.24308243064341717;-0.08371623857122312;0.1552101075724126;0.07423724289485945;-0.11165122266685934;0.17227247182839056
A;1;14.7;0.7366184250977623;-0.04815219417674532;0.5541115662014686;0.13342992291498534;-0.02995698258025925;-0.040957928860977155;-0.011179721189029657;-0.025787183336907216;0.005715681552990404;0.07821410671580509;-0.23192088102748176;-0.07923220080461135;0.1548065063981925;0.0753768473167633;-0.1091479412075671;0.17344786133874024
A;1;14.8;0.72117692268968;-0.05251058917345608;0.5591496578707202;0.13934630364386624;-0.03127454529595397;-0.04190688893662031;0.005287118312092609;-0.01921249481093046;0.006594725894274234;0.07835564880317403;-0.22042002582822118;-0.07463380525449903;0.15358389046044074;0.07647310641446126;-0.10737888488243108;0.1742249070753208
A;1;14.9;0.7049877080485576;-0.057009286702236484;0.5642591412166338;0.1455831932284184;-0.03253879022763506;-0.042707448076360954;0.021926009003672142;-0.01252707666756292;0.007446583097870274;0.07858389374606478;-0.20860051962825565;-0.06993524804512852;0.15161553849259413;0.07753245126015296;-0.10633450197304839;0.17461908487586353
A;1;15.0;0.6883883973902494;-0.06156429930945784;0.5694601392169814;0.15200712548646456;-0.03371323808384652;-0.043373568667779416;0.03861517224240174;-0.005796757589357604;0.008323889214894464;0.07890035560594466;-0.1965866678610828;-0.06521544150815739;0.14911524956512245;0.07856040628666738;-0.10595562446513718;0.17470154468477128
A;1;15.1;0.6716958769904027;-0.06609399451312559;0.5747707340572346;0.15849301831835305;-0.034760428932571585;-0.043918738491313114;0.055242510974427006;0.0009194189082797344;0.009280155242109345;0.07930798795017768;-0.18448814663308877;-0.06054456075928005;0.14629059550699974;0.07956555071251659;-0.10618358976134878;0.17454166016104633
A;1;15.2;0.6551692033771612;-0.07057968305251316;0.5802277664811735;0.1649528008468697;-0.0356944155274217;-0.04435262068458545;0.07169966829009411;0.007537421363185359;0.01028584351623607;0.07978120576950154;-0.17248775495682178;-0.056019791873509917;0.1432063518736637;0.08050935387222458;-0.1069605570844212;0.1741586761907432
A;1;15.3;0.6391140212893882;-0.07500923014958438;0.5858774122135939;0.17128251813972417;-0.03654366374138185;-0.04468685329970157;0.08785508875264192;0.013949879255862996;0.011291061570336325;0.08028358138995184;-0.16082346905556744;-0.0517667543687903;0.13991904465067773;0.08133617457045883;-0.10821961935577118;0.17356936279994617
