Condicao;Tempo_s;Ch1_HbO;Ch1_HbR;Ch2_HbO;Ch2_HbR;Ch3_HbO;Ch3_HbR;Ch4_HbO;Ch4_HbR;Ch5_HbO;Ch5_HbR;Ch6_HbO;Ch6_HbR;Ch7_HbO;Ch7_HbR;Ch8_HbO;Ch8_HbR
B;-20.0;1.0065464336039733;0.04613785027936235;0.9338424683286712;0.07097234377817596;0.7655776450426544;0.046371615741488625;1.5904918202906568;0.4950295929389714;0.8611919841568998;0.44198865161717915;1.3600920387737068;0.6738726766133842;0.9795330356281342;0.16870118194318628;1.2707987764378599;0.2640748331867302
B;-19.9;1.0022819926205928;0.0439503309091096;0.9280981247878577;0.06687387720935867;0.7629898643365447;0.04501306603443744;1.600814173432894;0.49849063061143317;0.8681858420413597;0.44416353511021445;1.3727517778554734;0.6800814658097569;0.9789066990898094;0.16921812737869946;1.2724334107404163;0.2634801718877835
B;-19.8;0.9971258843796544;0.04185459423243909;0.9214662570550933;0.06282311530254603;0.7597926217856656;0.043549327221687584;1.6113024083321985;0.5026342261811854;0.8751124965505319;0.44647553764776937;1.3850229046114775;0.6864329789065304;0.9785237369884419;0.1704629507392461;1.2745047621684726;0.2635306417851879
B;-19.7;0.9912521836882853;0.03982964710300685;0.914151601523133;0.05886022178192274;0.7560366762057633;0.04196328748135958;1.6215970357760225;0.5071261679177956;0.881786642109911;0.4487731800164658;1.3967940267426027;0.6928112145820751;0.9781286896171366;0.17218622081641666;1.2767095877591261;0.26400858365415747
B;-19.6;0.9848827184334459;0.03784245372058059;0.9064111163540511;0.05503444722814255;0.7517582031342016;0.040218343039886584;1.6311360136563042;0.5114618496750367;0.88789517770355;0.4508142826223711;1.40792745777444;0.6990821745990692;0.9773066816523475;0.17403127642429972;1.2785736552122549;0.26459811249644805
B;-19.5;0.9781514243625029;0.03590750915502827;0.8983730208280818;0.05138514315643583;0.7470049334414881;0.038309687570890816;1.6396535213523054;0.5154077189269595;0.8933178536272601;0.4525072365724787;1.4184334554268156;0.7052442759581017;0.9759267132166682;0.17589947636879;1.2799172046382683;0.26519282171038494
B;-19.4;0.9712045505727529;0.03404197225564598;0.8901706924200425;0.04795556764504916;0.7418165375943726;0.036226314902708445;1.6468112975790592;0.5186741441459151;0.8978888297825689;0.4537323120742238;1.428337149286949;0.711313793527983;0.973804138130272;0.17767338175909408;1.2805020777177738;0.2656634376795015
B;-19.3;0.9642261453079914;0.03218894952823437;0.8820586007516908;0.044773496309892025;0.7362787457008988;0.033959464073913814;1.652376873807233;0.5210028054460913;0.9014980588884489;0.45436003200100394;1.4374421323417779;0.7170692217276682;0.970760330296061;0.1790471768183446;1.2801124405493276;0.26577620907981103
B;-19.2;0.9573671105660333;0.03029485753519534;0.8742622615625084;0.041857256051960334;0.7304984922267295;0.031518149797490125;1.6563038130079133;0.522284925497237;0.9041537290549373;0.4543367925154289;1.445563580517037;0.7222866115510405;0.9667675899593613;0.1797940399007132;1.2786929045497955;0.26537506683994483
B;-19.1;0.9508572414266174;0.028300011974137895;0.8670760401822628;0.039245450728147446;0.7245470552343782;0.02887701302754575;1.658158565830735;0.5220927811757785;0.9056173231127449;0.45345032893332515;1.4524954426026597;0.7267444258443447;0.9614538356434252;0.17950235991020325;1.2758231392931627;0.264123977531705
B;-19.0;0.9449063152126067;0.026145099968085006;0.8607736862274988;0.03697063528282474;0.7185008127259263;0.026016985096052103;1.6575921918626686;0.5200713026077253;0.9057009948403385;0.4515196055822308;1.458048755826931;0.7302313978629251;0.9545273720672371;0.17780523113367863;1.2711691291986709;0.26173089930413695
B;-18.9;0.9395174129229655;0.02388548873094365;0.8553332691613456;0.035043174393714516;0.7124697535976061;0.02299742153247486;1.6549716813081798;0.5165146603262523;0.9046899014299994;0.4487285155461951;1.4623758631636874;0.732837858854718;0.9463993087791884;0.17496136562318565;1.2651208170186656;0.2584090076963097
B;-18.8;0.9346533629774711;0.02161486370073984;0.8506571499212487;0.033473806024026054;0.7065637851589717;0.01989288923674426;1.6507673508186969;0.5118201466135783;0.9029395696987654;0.4453287748119852;1.4657369322220326;0.734757181000119;0.9375763788483713;0.1713672868702636;1.2581640838812707;0.25447062847995916
B;-18.7;0.9302260054451876;0.019382821500608216;0.8466355401350869;0.032245005217329314;0.7009080006802098;0.016785932685860594;1.645706222541496;0.5065949141780846;0.9009479512602914;0.44163218889686284;1.4683399687344019;0.7361107979625898;0.9288279013236762;0.16746986477202253;1.2510752784304415;0.2503201315394019
B;-18.6;0.9261173460027408;0.017254571737402635;0.8431169919589898;0.03133537204660897;0.6956326480158133;0.013770601420787898;1.640619829217247;0.501539567613801;0.8992815107954;0.4380031686151895;1.4704393656202517;0.7370603750063602;0.9210214637569765;0.16380271182037642;1.2447323114564188;0.2464319109244144
B;-18.5;0.9223877870460306;0.015294405097269426;0.8401093071391497;0.03077233706428295;0.6908173384740639;0.010882806247465737;1.6355704432469436;0.4966967593855829;0.8980214783585154;0.43450735489537795;1.4722068298973805;0.7377348095142677;0.9142199615392403;0.16047033785514042;1.2391648896135736;0.24286294210718484
B;-18.4;0.9191169768377163;0.013544986418472682;0.837650196581949;0.030581867011012953;0.6865301829077595;0.00814485223534156;1.6305312729942298;0.49203247619712087;0.897180495234049;0.43115511633874615;1.4737748213476025;0.7382289576530701;0.908395124361709;0.15748986527626307;1.2343146511827747;0.2396056192167304
B;-18.3;0.9163359350184486;0.012107678325347315;0.8356967894604859;0.030793950857095354;0.6828602876859673;0.005611376335546758;1.6256633204505406;0.4876767104156392;0.8969199664149015;0.42808631379831574;1.4753803853415426;0.7387328543343901;0.9037037916611297;0.15508982961432594;1.2302982517832675;0.2367994035949854
B;-18.2;0.9140821683802134;0.011079571183826076;0.8342105733133707;0.031438851196070594;0.6798886928913443;0.003331114707155969;1.621080268954779;0.4837211409892612;0.8973646037284002;0.4254165439021964;1.4772576805113706;0.7394372229454436;0.9002453146866687;0.153464562166989;1.2271762883040953;0.23455530590269813
B;-18.1;0.9122458087775618;0.010448204106828562;0.8330872318367648;0.03247307042178171;0.677709141269558;0.0013633464143465446;1.6175089920748023;0.4807814175721199;0.8989642452079805;0.42339308210778714;1.4795563046509979;0.7404056766680016;0.8987861925954714;0.15296338279637656;1.2257522115625115;0.23324071723043271
B;-18.0;0.9106600008801742;0.010185295625301904;0.832187029332113;0.0338323921599768;0.6764300625485618;-0.0002175988911048421;1.615925507670557;0.47968251007978946;0.9023226886433369;0.42234871233222826;1.4824151090873205;0.7416750155474148;0.9003648100959918;0.15404876254368816;1.2271181585269852;0.2333452659491302
B;-17.9;0.909271284369134;0.010251068569824717;0.8314601983981209;0.035480133080644904;0.6761112461910983;-0.0013852574746602286;1.6167726014108226;0.48080115148511116;0.9076813426613555;0.42238807666845535;1.48593847943053;0.743282849928566;0.9054182292065347;0.15685424520052837;1.2317505991450934;0.23505781320399244
B;-17.8;0.9080079464319493;0.010590534196158075;0.8308473465137771;0.03737017363926132;0.6768061325075703;-0.0021155186155317196;1.62053920748993;0.48455641891375034;0.9152988518243008;0.4236188512229875;1.4902167725098705;0.7452517909945859;0.9144301973771105;0.16151562083090454;1.2401828172035758;0.23858330193914767
B;-17.7;0.9067586876817213;0.011246025870824461;0.8302357091211094;0.03947429295304605;0.6786334624348633;-0.0023219774886387157;1.6279910024980575;0.49158018926298785;0.9257040489434898;0.4263759283048909;1.495404870936599;0.7476536921397052;0.9282148347773314;0.16849741929455053;1.2532345230023534;0.24433512674445623
B;-17.6;0.9054591014248343;0.012282456128122732;0.8295430445176413;0.04178367537024119;0.6817055238328518;-0.0019248379487262213;1.639698127176262;0.502333729845279;0.9393164210794351;0.4309425591288347;1.5016578280074615;0.7505747657804194;0.947367340148733;0.17818820363182297;1.2714866347159992;0.2526303877952838
B;-17.5;0.903919467255994;0.01370857484749699;0.828593524360195;0.044239924633162175;0.6861200145722339;-0.0008387057389347419;1.6566241680295755;0.5176359185073971;0.9567549040459058;0.4376945161217076;1.5091253637980828;0.7540779018730746;0.9729086701441814;0.19112476333503015;1.2959977979350885;0.2639825684033408
B;-17.4;0.9019771481232741;0.015544575424587315;0.8272365339289189;0.046795568892957995;0.6919729038419913;0.0010194434240906602;1.6796243507647022;0.538207233452443;0.9785832094291935;0.44698305929036586;1.5179350962520712;0.7582135897925517;1.0057425112664529;0.2077991497280447;1.3276954866594686;0.27884725959633627
B;-17.3;0.8997540144145759;0.01779012949009484;0.8255477684205221;0.049473712877356135;0.6992610124380345;0.0036240100359847816;1.7083014973867132;0.5637056054309224;1.0045211041114355;0.45862840536204086;1.5281420329428195;0.7630366577360883;1.0453473875323436;0.22792379535665308;1.3660448927090423;0.2969659802465925
B;-17.2;0.8974107741326751;0.020412647584809207;0.8236305949443272;0.052299470548240024;0.707928548868269;0.006909780932277343;1.7419672752029087;0.5935596133657319;1.0340575488095656;0.47229342877816194;1.5397788486757404;0.7686041150133294;1.0908589299982898;0.25099493314803745;1.4101802937983168;0.3179083589561502
B;-17.1;0.8952002566642943;0.02347423132431814;0.8216867326173016;0.05535029672190106;0.7179898944988281;0.010852076308159653;1.7797955348492414;0.6270240108898548;1.0667207465436794;0.4877240643695968;1.5528082667750112;0.7749113226014224;1.141309202649282;0.2765691841975446;1.4590492389357648;0.3411895353102903
B;-17.0;0.8934135378971879;0.02703404945827792;0.8199478649854539;0.05871314157854712;0.7294417144652083;0.015409768883953845;1.8207750003613783;0.663196906764453;1.101913680196736;0.5045889828118382;1.5671792618967673;0.7819531248435072;1.1955187497607076;0.30409033207121716;1.5113828987030047;0.3662202904961953
B;-16.9;0.8920199020211781;0.031013770192025447;0.8183556244428649;0.0623521114256711;0.7421885525717826;0.020529930069845825;1.8647054727340282;0.7019661837542652;1.1393824259676064;0.5226977038005218;1.5829238197317914;0.7897817807564662;1.2531576818805927;0.33330799609313555;1.566906768881008;0.39284686881950126
B;-16.8;0.8909472502656524;0.035342344750952215;0.8168254860741611;0.06622369609170775;0.756141500658341;0.026174991869183373;1.9115245607613267;0.7433358693534866;1.1789771169647185;0.5419339527738183;1.6000477866900202;0.798423712067573;1.314063138257902;0.3640749886543988;1.625510727677769;0.42099768134144
B;-16.7;0.8902108554756971;0.039915087178455266;0.8153249057641769;0.0702948062698594;0.7711715796677279;0.032258071534212895;1.9608017192895097;0.7870060101105847;1.22025422218909;0.5619716547616953;1.6186061798861;0.807962715544202;1.3776225138067897;0.39595773577156024;1.6866536313822298;0.45038177802126445
B;-16.6;0.889799045860932;0.04462024782706475;0.8138007074590474;0.07452442457989061;0.787136051782019;0.03869104905235421;2.012140742203796;0.8327145541887164;1.2627844618581987;0.5824945716161425;1.6386374240332269;0.8184724577078111;1.443263103075;0.42854271230017726;1.7498401279640214;0.48072950368757095
B;-16.5;0.8899458732899594;0.049579191671695;0.8124791318881375;0.07900700691046225;0.8040706628054615;0.04548697611206354;2.0647515071143308;0.8797154216457224;1.3062204135476243;0.6033842249321406;1.659942626064412;0.82981762994577;1.5101215673598443;0.461534473784714;1.8140649506017095;0.5115990488851327
B;-16.4;0.8909969523610402;0.054978633275297284;0.8116936547630642;0.08388393624256363;0.8220661075460569;0.05267813017409573;2.1176320988269697;0.9270321986592978;1.3501677416854214;0.6245278322111094;1.6822849772434347;0.8418277145625388;1.5771291174791777;0.4945971698887037;1.8780556440887395;0.5424395846925112
B;-16.3;0.8930357940402489;0.060908496969164005;0.8115493996387562;0.08920610602705725;0.8411108336434729;0.06028381810029071;2.170297801396452;0.9742221032994938;1.3944376849461326;0.6459055293474121;1.7054226936283223;0.8543394587451298;1.6437683472089368;0.5276108994858042;1.9411862926833807;0.5729895514507657
B;-16.2;0.8961626220055869;0.06748243176854096;0.8121761090809319;0.09503671830274207;0.8612058914388827;0.06833364587442503;2.2222242479445966;1.0207937571564782;1.4388531192610214;0.6675230299198489;1.7290726290614407;0.8671562992788893;1.709500284856328;0.5604760836785561;2.002786358606153;0.6029739435147015
B;-16.1;0.9006659173991709;0.07477781382397541;0.8138098780080734;0.1014633307497057;0.8823750882874197;0.0768018827615311;2.2725114814428014;1.065908240755308;1.4829183925425502;0.6891222033526727;1.7531817658282427;0.8802593297763339;1.7732797580185098;0.5927274502218562;2.0617171723062597;0.6318718845704865
B;-16.0;0.9067513732992101;0.08281048700747551;0.8165969990607405;0.10853311632064067;0.9045935328255981;0.08563900631071597;2.32041702538181;1.1089031803478824;1.5261483985680613;0.7104140645792691;1.7777630940975722;0.893687560895271;1.8341973962819216;0.6239041402613408;2.1170372203309267;0.6592406620415696
B;-15.9;0.9147890250536044;0.09172635834995813;0.8208757669067905;0.11637831440842739;0.9279163448774455;0.09484025020303744;2.3647961021974844;1.1486829282014936;1.568002577564445;0.7311659868082696;1.8026246215273445;0.9073140266358215;1.89100881737843;0.6535237604882571;2.167334759971043;0.6844479344714172
B;-15.8;0.9251111801772813;0.10164176872392083;0.8269392292882234;0.12511084030326014;0.9523831746646421;0.10439085409700777;2.40461109015753;1.184257614212044;1.6079648584570423;0.7511386809248304;1.8276291935982614;0.921054176827576;1.9425693393475187;0.6811205965480012;2.2113316804428704;0.7069178960690934
B;-15.7;0.9374207597819009;0.11243705000628523;0.8345209472160446;0.13462382591114253;0.97778837685809;0.11424265854177484;2.4400854836551216;1.2159496520416984;1.646005137494969;0.7703041411631926;1.8526714458080895;0.9348779750822507;1.9890536206140519;0.7067399628291877;2.249303793562696;0.7267725594177836
B;-15.6;0.951261268820466;0.12396105209471564;0.8432370727629968;0.14476766335324864;1.0038629405080828;0.1243516393389772;2.471692024005444;1.2443401923079198;1.6822270683754441;0.788726492621767;1.8775440279774767;0.948686295214999;2.0309445400160406;0.7305905032354527;2.2818604643524125;0.7442908257673926
B;-15.5;0.9662009348638119;0.13596650052698234;0.8526381908046314;0.1553518089080601;1.030358348312041;0.13462792749109465;2.500137054522298;1.270218420127243;1.716710959104108;0.8063387446365624;1.9024446976781215;0.9626762973585472;2.06884621451523;0.7527729530571898;2.309858425537981;0.7598381699503967
B;-15.4;0.9817176198669015;0.14817101615157746;0.8621946556738873;0.16615391439233917;1.056989153955481;0.1449755132220849;2.5263069296807505;1.2945627186587456;1.7496035874165354;0.8231015347960122;1.9275758677715347;0.9770538039065988;2.1035500068689563;0.7734590666377548;2.3343763514214038;0.7738793694385504
B;-15.3;0.9975932536032506;0.16056356507142144;0.8717866887471581;0.17713078600969823;1.0835683048563087;0.15538225732045507;2.550026206762955;1.3172752095359106;1.780829903475559;0.8390650117367286;1.9524805302327923;0.9915198898092052;2.1349777453147905;0.7927208286519081;2.3553103687824555;0.7863839024632595
B;-15.2;1.0137038338291076;0.17316085035852335;0.8813731000929588;0.18826748695901152;1.1099502517353015;0.16583829529140814;2.5709643760055063;1.338077593023718;1.8102595213431059;0.8542489219442064;1.9767263918897418;1.0057851758938328;2.1629019456980823;0.810564477258179;2.3723849765090215;0.7972428512326708
B;-15.1;1.0296813638519966;0.18591895488172572;0.8907201375631182;0.19948073825975676;1.1358820997920667;0.17633230863769445;2.5891853799975912;1.3571517014064456;1.8379182848757987;0.8687716339375156;1.9997763229492929;1.0195054251442044;2.1874907157214336;0.8271895356838677;2.3857646241841586;0.8065516075278047
B;-15.0;1.0451846722175278;0.19881001308920254;0.8996256078263416;0.21069903756818587;1.1611218442832465;0.18685694861059954;2.6046874261912256;1.3746052875483536;1.8638206608238361;0.8827555305528829;2.0210603484346708;1.03230898271114;2.208866749263149;0.8427890954075776;2.3955521393510395;0.8143790499885504
B;-14.9;1.0599382917170868;0.21157271679409018;0.9077214118211074;0.22174803070780946;1.1855105376989146;0.1973020850499454;2.618147876515129;1.391109723772402;1.8880071175289004;0.8960415844871497;2.041068736724439;1.044585089921878;2.227589807079485;0.8573530924011763;2.4026081755406814;0.8210780885154461
B;-14.8;1.073613299808911;0.22385266142993654;0.9145259505670547;0.2324002180985234;1.2088815760320113;0.2075240865446295;2.630590610272721;1.4076833361633352;1.9105658709724986;0.9084052140944987;2.0606068232536354;1.0569597269761757;2.244461735993152;0.8708563262371731;2.4081493704797383;0.8271457030183584
B;-14.7;1.0861147089090828;0.23548813128568646;0.9198705871885045;0.24255798060569322;1.2311440000299525;0.21743565169783974;2.642237522500914;1.4245066899243788;1.9314247728432639;0.9196836142913423;2.079984298439522;1.0696729260717408;2.2596744196002767;0.8832013812693713;2.4125651134071324;0.8327285825634458
B;-14.6;1.0973688704773084;0.24629723106230728;0.9235825890856635;0.2521170091285736;1.2522249342345226;0.2269398620607479;2.6533661427896167;1.441788781524893;1.9505173205117012;0.9296859540982307;2.099627248434381;1.083043873445698;2.2734645741394344;0.8942692253958056;2.416320286085641;0.838001022203124
B;-14.5;1.1069316255312325;0.25600199315702277;0.92517811443577;0.2608705985051394;1.2718805608916472;0.23593518535036662;2.6648997352919785;1.460577894252471;1.9679570598296232;0.9383267861759501;2.119880731348851;1.0973897947570221;2.2865474098238527;0.9041662182266217;2.42041812656941;0.8433900910583652
B;-14.4;1.1143712033238078;0.2643965197754943;0.9242454343712625;0.26864964870874;1.2898554060087388;0.2443479745009398;2.6775367875381932;1.4817413756251165;1.9838263125796383;0.9455838720534198;2.140803567851976;1.1128243386735175;2.2994604604757294;0.913027266919114;2.4255882458670888;0.8492139536919301
B;-14.3;1.1192489524227582;0.27112168486575694;0.9202352263398534;0.2752068784886932;1.305943110811544;0.2520473909268661;2.692477852053263;1.506494843944582;1.9983166893452688;0.9513163154504207;2.1631027904237308;1.1299061944918742;2.3132011216099926;0.920953752638968;2.4332296621400946;0.8560594059699436
B;-14.2;1.12113793089845;0.27585564835530185;0.9126377073024816;0.28031599161477416;1.3199331386171238;0.2589166275775199;2.71080425793828;1.535961940277752;2.0115948704768822;0.9554081263440972;2.187352390786508;1.1491006112503648;2.328655538075984;0.9280493807876282;2.4445782845500617;0.8644464837651062
B;-14.1;1.1201480982227787;0.2787373892251477;0.9016808306968569;0.28405927009805243;1.331772105997473;0.2649723898294267;2.7316835619108826;1.5693384001599284;2.0234173356010166;0.9578868568860841;2.2128773171788136;1.1699208624834343;2.3452034153449715;0.93423517970318;2.458837990497165;0.874033916454942
B;-14.0;1.1165822821071547;0.28000706670265796;0.887802314004853;0.286596605791936;1.3414919737270834;0.2702570080110931;2.7538037520179737;1.6052297979181929;2.0334608189732126;0.9587923254863222;2.2388367443180126;1.1917224895494716;2.361917541818519;0.9393692839848882;2.4748071312295146;0.884303031885628
B;-13.9;1.110559684756807;0.27995545323765736;0.8713636947050709;0.2880910168527828;1.3489928953119827;0.2748455608483624;2.7758502928791176;1.6425147504272561;2.04135899315997;0.9582542401753589;2.263962074663712;1.2136152345759679;2.3776799999015825;0.9433787884774145;2.490970755370288;0.8946198907041709
B;-13.8;1.1022769505311718;0.27894033557230546;0.8528335559795215;0.28875029423371945;1.3542003269329923;0.2788334933719385;2.7962603520732685;1.6798341407674335;2.0466944180119544;0.9564271810562284;2.286807680497108;1.2345761676220182;2.391168290191616;0.9461703726129045;2.505533086504988;0.9042318225466768
B;-13.7;1.0919552807247266;0.2770008455104698;0.8324249799096766;0.2886191039054937;1.357195937310271;0.2822022638756456;2.8144623647537097;1.7162630632224076;2.0493875405995254;0.9532696224861814;2.3073296795211102;1.2544942351579342;2.4022374856254105;0.9476665094718735;2.518337295132393;0.9130532537941445
B;-13.6;1.0797438934843093;0.27411738860305235;0.8102529505880582;0.2877027497699167;1.3580460402421135;0.2849193625319426;2.83013362771825;1.7510966377482484;2.049426035065192;0.9487276083054379;2.325666772472114;1.2733603179071156;2.4109553941956117;0.9478202024450644;2.5295010142372725;0.9211151749964475
B;-13.5;1.0660150405956301;0.27042087942394755;0.7867075496443192;0.2861128037509548;1.3568912921954555;0.28698921661622556;2.842414774030358;1.7831901458700394;2.0466538069838522;0.9427778949348733;2.3415678344576287;1.2908722555955547;2.4168924781202596;0.9465078173362635;2.538496331944751;0.9281721768351439
B;-13.4;1.0511444646559767;0.2660226533623229;0.7621631965783093;0.2839511866549085;1.3538899095386574;0.28841163161196803;2.850521766603808;1.8114168011295724;2.040951923728419;0.9353909250420855;2.3548922592435906;1.307030491117175;2.419717400094865;0.9436148007972669;2.5449199820227824;0.934030146758317
B;-13.3;1.0350876259692203;0.26117043297385134;0.7368308312112326;0.2813397851853239;1.348885418709929;0.28926905115721446;2.853503221858592;1.8350867506119273;2.0320515451512975;0.9267346141538839;2.364466763753533;1.3210834220073582;2.4185193751999305;0.9391473826730854;2.5474670621267714;0.9381522159898141
B;-13.2;1.017719958511357;0.25619900365642145;0.7109430717804281;0.2784361972089968;1.3416320793369554;0.2896800530846342;2.8502732096906724;1.853692224941648;2.019585859956856;0.9170487566291481;2.368645465277722;1.3310797842253845;2.4120443998779155;0.9331282940962531;2.544345625569039;0.9398077416946431
B;-13.1;0.99895564301604;0.25121620322091154;0.6845609407296198;0.2752840648362742;1.3320305879135566;0.28968865342044836;2.8403457500080034;1.86669920733946;2.0034851965634255;0.906451572105329;2.3668750896132216;1.336850091376323;2.399974229815215;0.925618212147437;2.5350232049365884;0.9387800129455584
B;-13.0;0.9786651075231392;0.24633911505482775;0.6577224852325685;0.2719266674454133;1.319956956569909;0.28934801308107705;2.8232512705822126;1.8736327164597366;1.983682757015469;0.8950833965087002;2.358536483286758;1.3417328179535435;2.3819673890944957;0.9166968010958882;2.518916401031734;0.9348347150463718
B;-12.9;0.9569476061690949;0.24189547590239258;0.6308049751862104;0.2685449581557444;1.305301818341687;0.2887539210400112;2.798111602769109;1.8743067486756848;1.9598216527052763;0.8831183048184377;2.342219772441469;1.3366699903697836;2.356836824969979;0.9063219805537228;2.4943949187904355;0.9272955175129365
B;-12.8;0.9339917367033737;0.23815739184107176;0.6041976135920386;0.2653014948551906;1.2880389315883924;0.2879764843617423;2.764253575564226;1.8686247379821064;1.931618462709217;0.8706789755982793;2.316854366325631;1.328724466546959;2.3236402645064143;0.8944382725220166;2.4601826078982603;0.9156265036799929
B;-12.7;0.9098217108936026;0.2355248361267126;0.5782817459448744;0.26240670626386553;1.2679998435322988;0.287150895658681;2.7205737557795926;1.8562341602266486;1.8986744495602794;0.8580124056375391;2.2807177649459773;1.3134121651451434;2.280954492941458;0.8810314235988015;2.414278503500869;0.8990052087863996
B;-12.6;0.8844904560973115;0.23436555002092607;0.5534309149290788;0.26005728644026327;1.2450479862062211;0.28639821910659347;2.666152174815136;1.8369821218010656;1.8606290241021934;0.8453410119088751;2.2322449392241555;1.2901032854786827;2.2274878286381616;0.8660859648898835;2.354875027120202;0.8766874779773763
B;-12.5;0.85814904729743;0.23450459650947408;0.5296156818035573;0.2581773203318267;1.2193944210891958;0.285657905365289;2.601524890755207;1.8107172081008565;1.8178240169280597;0.8325956953322624;2.172456749527588;1.2593420305581322;2.1641844799503387;0.8496784800909678;2.283179255057913;0.8491594463329921
B;-12.4;0.8309307038560494;0.23563111615760501;0.5066707733869258;0.2566180659748669;1.1913290463613606;0.28483488690670544;2.5274872601051017;1.777009201439241;1.770811781555473;0.8196565221590806;2.1030522911770184;1.22231270001584;2.092587365164883;0.8319332979399956;2.20116771189243;0.8172242881648857
B;-12.3;0.8031030647277433;0.2374411458530421;0.48454285491403404;0.25524821017184074;1.161170792876483;0.2838036030022817;2.445318349056385;1.7366280176406101;1.7200415347065245;0.8063402005901006;2.025606108257951;1.1800146551766582;2.0141024973293478;0.8129020793096124;2.1107669044197275;0.7816577862202791
B;-12.2;0.7749526638552595;0.23955492734549555;0.46312449962401203;0.25389912719001995;1.1292935616344142;0.28241389238532744;2.35655862444572;1.6904404098686094;1.6660674787664833;0.7924234756484001;1.942069182384242;1.1336355500337953;1.930458463503479;0.7926508140715942;2.0143370303362476;0.7434129292249105
B;-12.1;0.7465127775657949;0.24187742277737634;0.4423507998961842;0.2525245888172609;1.0958597080638475;0.2806680255730072;2.26121672654207;1.6374025605114937;1.6092572969037668;0.7779465943831019;1.8532448426505979;1.083519550502157;1.8424203123751353;0.77131713059525;1.9127268778875246;0.7028385794520213
B;-12.0;0.7178021616553361;0.24438839320210448;0.4222100713842476;0.25111555679001807;1.0609838182523381;0.27859351498883367;2.1591514569480172;1.576576522734057;1.5498830047139878;0.7629895687452031;1.7595745147724835;1.029793806283211;1.7504418989123822;0.749026101779279;1.8063751568435613;0.6601171823995227
B;-11.9;0.6888598470159382;0.24687537986754826;0.40253551261639053;0.24956617814156346;1.0249096309161425;0.276160848485941;2.0508161175783726;1.507089508239881;1.4884948017861488;0.7475446447871059;1.6624697483683661;0.9731608222585972;1.6558165673686123;0.7259527727581583;1.696808252387778;0.6158756686236266
B;-11.8;0.6597095343366393;0.2491477790859049;0.38316456062193893;0.24778039786968442;0.9878685668644698;0.27335237116440325;1.936595858363456;1.428017029879765;1.4256308794816004;0.7316228939615481;1.563259951250048;0.9142685295129569;1.559764085967017;0.7022763995815993;1.5854436422987188;0.5706978916491785
B;-11.7;0.6306443235594266;0.25100209640339877;0.3641475986728171;0.2456808389110039;0.9501240300490652;0.27006366299456896;1.818075078469907;1.341374364076795;1.3615737399758627;0.7150673358823614;1.4629664949661154;0.8539589323272265;1.4632157100125163;0.6780048800404268;1.4736626193841325;0.5251389861498446
B;-11.6;0.6020553743143999;0.25217574855087044;0.3455642985549314;0.24316948548197015;0.9119887973511656;0.2661449284817117;1.69751720702061;1.250379141212011;1.296600596918184;0.6976405091810021;1.3627897750545195;0.7933335498688323;1.367251497423239;0.6531041305382566;1.3631463529404142;0.47987175672907956
B;-11.5;0.5741579419610279;0.2526184395224895;0.3275275145219698;0.24024057854225145;0.8736330633924299;0.26156253568099697;1.575842215937298;1.1564116377748177;1.230862919971539;0.6792976625906766;1.263119715310709;0.7327692551754308;1.2722390283864424;0.6275880680817663;1.2544673253885268;0.4351259332404105
B;-11.4;0.5471888026259482;0.2522867713241794;0.31017298815595673;0.23689392816827315;0.8352240218597125;0.2562777845018216;1.4540816613550138;1.061175785155464;1.1644767803521052;0.6599818035876659;1.1642754623765041;0.6726413832675453;1.1784796427353124;0.6014518792307637;1.148148259247546;0.3911102695707669
B;-11.3;0.5214529751284456;0.2508663457032707;0.2934600216465082;0.23299894945773048;0.797112958504341;0.2501581358824927;1.3346914913985883;0.9676607284696148;1.097908314107034;0.6394958327062135;1.0678976360568146;0.6142736734700422;1.0874368499119127;0.5747447993380765;1.0462215141376099;0.34864632232786175
B;-11.2;0.4971856117526041;0.2480738014211683;0.27731384627193556;0.22843514387282848;0.7596329635560402;0.24310432154146078;1.2198507170683066;0.8782799075432957;1.0316624514845607;0.6177016114782639;0.9755995863619953;0.5588955709829997;1.000546046638938;0.5475564390779288;0.9505868471253729;0.3085053896738783
B;-11.1;0.4747519114662566;0.24355805914379314;0.261711815152049;0.223057738049234;0.7231491583852723;0.23494873513637593;1.112309683941167;0.7966513961942614;0.9661618668321861;0.5943346968525942;0.8890487494138846;0.5079327023321807;0.9192878852821167;0.5198885472956372;0.8634228985869266;0.27156701256866267
B;-11.0;0.4544877620217669;0.23699090124149347;0.24662535150417142;0.2167319345468286;0.6880153453522819;0.22554142305773883;1.014758524736704;0.7263004313311281;0.901834055028087;0.5691609434841425;0.809864538495705;0.4627665944618542;0.8450950268574227;0.4917580113233857;0.7867981594258273;0.23866721689470705
B;-10.9;0.4363263138864255;0.22854779860370034;0.23211350476095483;0.20954383766036333;0.6542618242961744;0.21500970920198714;0.9266612358835178;0.666261375473848;0.8388243647455296;0.5424056453241715;0.7377961289678501;0.4230752656004486;0.7777411029582328;0.46329863551088746;0.7201712038604597;0.2095974447058282
B;-10.8;0.4200986003916505;0.21855053026035876;0.218273899239934;0.20164389295897855;0.6218118553648857;0.20355084803555634;0.8464498074698827;0.6142286268526727;0.7771465443652605;0.5144036508736267;0.6719568187815259;0.38798878699549855;0.7164345005265016;0.43465003101155286;0.6622017966792519;0.18382911551135894
B;-10.7;0.40563052938703237;0.2072532194797736;0.20514249176926036;0.19315309923779012;0.5906634521175373;0.1913579141736994;0.7734437896894839;0.5689497678021143;0.7169873463684162;0.48549857686972686;0.6119824437271424;0.3570656921412456;0.6608343459955419;0.4060143801098963;0.6119864308628902;0.16100977524160864
B;-10.6;0.3926872719793906;0.19498073805625094;0.1927633731106777;0.18422324726737482;0.5607675952958129;0.1786636514439417;0.7065347190157745;0.5285902539576357;0.6584938592201377;0.45609901584260193;0.5572470565987135;0.32963160081056486;0.6103649370238085;0.37761043346473944;0.5682520569052016;0.14063949696280176
B;-10.5;0.3812297428754796;0.18189437055873992;0.18120988161240348;0.17493211478670023;0.5321091008613177;0.16555886772127426;0.6448574712095247;0.49196833670084716;0.6016633254073644;0.4263479713221283;0.507253282423938;0.30521478263309065;0.5645714933925303;0.34948326577995115;0.5303788609563185;0.1224791920467494
B;-10.4;0.37126774779055793;0.16808584037317686;0.1705393092780767;0.16532710213045654;0.5047112095113935;0.15209558874714713;0.5880250313764313;0.4586065926885472;0.5465206268222458;0.3963228270195609;0.4617480830474765;0.28358284281691093;0.5232108816164871;0.32165711168836086;0.49808570723010526;0.10642533913649554
B;-10.3;0.36267521031725103;0.1538382672359715;0.16085063784848685;0.15553932386426617;0.4784778048822069;0.13842710135841152;0.5344404699887075;0.426387966237721;0.4929792070167398;0.3662666349057684;0.4197511773345557;0.26385221546832005;0.48539978694126606;0.2941952056782622;0.47012068185883393;0.09198659100510564
B;-10.2;0.3553326000788264;0.13942112755098002;0.1522384078611676;0.14569328713621754;0.4533096836427948;0.12469565683938999;0.482524366501619;0.3932529334108201;0.4409347305048721;0.33640085448487245;0.38028586845534296;0.2451538319549189;0.4502552181935666;0.26714507929951914;0.4452702502166881;0.07868716161522027
B;-10.1;0.3491137541892879;0.12497106281191339;0.14468511555966757;0.1358599536782874;0.4292687506763446;0.11103970943693842;0.4327900552314583;0.35976445171335847;0.39064513630090314;0.30697924930207154;0.3434796045079853;0.22757117629849866;0.4178453600306087;0.24069263484121173;0.4231870795848547;0.06639762085151357
B;-10.0;0.3438565697774436;0.1106351214950747;0.1381493881642193;0.12611661922433726;0.4064421097392916;0.09762608225087543;0.3861800478330677;0.3270163191999602;0.34246737841313024;0.2783156235370807;0.30963878286284796;0.21134280733811428;0.3883907099684887;0.21508552606489761;0.4035539998063218;0.05500091895628145
B;-9.9;0.33950900836109277;0.09643609720665847;0.13258788035200908;0.11648082690686934;0.38491464490774163;0.08451528134957442;0.34346475346398986;0.2959818715378777;0.29661695072902816;0.25052141031966624;0.27910466100153286;0.19675787728001204;0.3621431950849079;0.1904304925172413;0.38648079944345337;0.04455116442637941
B;-9.8;0.3360178046021485;0.08237646508629748;0.12794103587657446;0.10696139794048065;0.36478387887174435;0.07176224666792397;0.3056471041852511;0.2679473448802461;0.25333639821511245;0.22370159014203406;0.25233420730048284;0.18421338368505014;0.339452944304381;0.16684149277302485;0.3721796677196796;0.03514351959781781
B;-9.7;0.33318787062260036;0.06871140100512818;0.12421874215969986;0.09768115634314967;0.34604777160826217;0.059567578811698496;0.2727481558456697;0.2429269723388714;0.21283246908816356;0.19821155230013598;0.2290357695411256;0.17345721163328953;0.3200250548748764;0.14453617103205119;0.3597516948703703;0.02642976264210084
B;-9.6;0.330836755998984;0.05570533532750144;0.12144778551050628;0.08876476137600076;0.3286716490640078;0.04811930490575733;0.24438341285744247;0.2204500468564623;0.17522622290273304;0.17437462527486325;0.20871217747297166;0.16406530308555878;0.3033883588901878;0.12368885826032461;0.34819108770368246;0.018019553041658476
B;-9.5;0.3287305370603413;0.04360642901475398;0.11960690453108924;0.08033338735110451;0.31265720993389756;0.03762834796710468;0.2208894007815152;0.20093370622816176;0.14076783963908657;0.15257234491375993;0.1912082948236673;0.15591566235276222;0.289358612279889;0.10454763783257803;0.3366236776664744;0.009574042995400767
B;-9.4;0.32664832334105576;0.03265775611533073;0.11867883097016296;0.07250478810734684;0.2979989221205397;0.02829560289848665;0.20251087383508004;0.18470347679918353;0.10968103590030598;0.13316543985574025;0.1763227088572421;0.14885116245067875;0.2777157623673636;0.08734323105909958;0.3241866818325905;0.0007596350275784758
B;-9.3;0.32462806801412825;0.02280883675187173;0.11863946845957685;0.06525379013239885;0.28468970282895256;0.020073234580167743;0.18893962559620192;0.1715052812125646;0.08186855764715784;0.11604020521561687;0.16394085573704142;0.14279860123917887;0.26832127556505636;0.07197766632940628;0.31104275017150584;-0.00834579923954415
B;-9.2;0.32276977324534073;0.013904244845734937;0.1194432463833035;0.05850559896187768;0.2727224550890206;0.012834500816759409;0.17984531686075655;0.16108099490247563;0.057146987322041376;0.10093730586551253;0.15406100431075842;0.13778834473426338;0.2611315802859888;0.058258899951811216;0.2977123815383287;-0.017521527417290628
B;-9.1;0.321177147131122;0.00588707116250653;0.12109807546955054;0.05222845475175486;0.26207837106297305;0.0065018899624673665;0.1745848090357569;0.15283332546762018;0.03534586155930075;0.08768007669019973;0.14639576124005682;0.13360615824998145;0.2558825982003068;0.046037617653437835;0.2844051547838111;-0.026668030929606346
B;-9.0;0.319987220750658;-0.001340107610379171;0.12360943110032352;0.0463705216171606;0.2527328968351199;0.0009621869091240853;0.17241605243762503;0.14606614529288908;0.016240695804091487;0.07602323184665405;0.14065280234085709;0.13003861095224156;0.2523066518998309;0.035115208622561234;0.27145945525536597;-0.03563413267959614
B;-8.9;0.3191810447903016;-0.007874655542162934;0.1268927721475297;0.04088750002930919;0.24465524372254954;-0.0038504970633974622;0.17329970361254965;0.14083828228514195;-0.0002800471511639202;0.06583280926523916;0.13689278371772673;0.12718153979061997;0.25040567110738277;0.025392195975854293;0.2591187295530304;-0.04431166622347238
B;-8.8;0.3187052729123927;-0.013774719562158921;0.130862697680735;0.0357542469835348;0.23781214930270167;-0.007970066784607432;0.1772923768971948;0.13732420947652502;-0.014285097378319733;0.05703805004594731;0.13516863338908802;0.12512693559575094;0.2501807292975142;0.016816388079773148;0.24749621637545083;-0.052644324129015985
B;-8.7;0.3185889385515086;-0.019217706226211106;0.13542079067528334;0.030887263849585622;0.2321658773281321;-0.01152478465106821;0.1842645240016454;0.13551085823052;-0.02597377368908127;0.04938445576299433;0.1355781435542207;0.1240133579683631;0.2516549500049319;0.009200932582687393;0.2370764539730379;-0.06042862146852812
B;-8.6;0.3188487070206758;-0.02437998711756517;0.14046154088402396;0.02620403702187346;0.22767293108685216;-0.014640814055773888;0.19412099226942114;0.13542470768425208;-0.03554430545690934;0.04262423161894624;0.13823218174265417;0.12399392845642287;0.2548645485027441;0.002365792509378295;0.2283283481501419;-0.0674675401636824
B;-8.5;0.31955045107496716;-0.02923368635853052;0.1460071543648489;0.021712143275187223;0.22430265123713689;-0.01734056279634011;0.2063319107526551;0.13667277555689505;-0.04310325561399875;0.03669006824659338;0.14274929856291685;0.12479309253248738;0.2595003437650387;-0.003752424343039351;0.2212143682029133;-0.07375813938135245
B;-8.4;0.32079814718880506;-0.03371560743171109;0.1521192248424068;0.017432661801440652;0.22202766837376942;-0.019636871706892656;0.22017076710546313;0.13868035485582508;-0.04876500468476408;0.031523504449442186;0.14858840148717078;0.12600087473507982;0.2651312226208269;-0.00921922898851868;0.2156203169484865;-0.07932624180399195
B;-8.3;0.32257665233779775;-0.037760835388087166;0.15879284683661687;0.01339387551771587;0.2207957175714519;-0.02151511867339906;0.2352764515285788;0.14120804345949134;-0.05259466533000445;0.027139437977226066;0.15541547790116184;0.1273866195755633;0.27149350304615005;-0.01403315305506947;0.21132698269448014;-0.08424259765416675
B;-8.2;0.32487321191263696;-0.04128213664955904;0.16603508387708565;0.009634103330547816;0.2205536400485375;-0.022949214715874966;0.25125628843254155;0.1439885259834277;-0.054646767192621404;0.02357449257159505;0.1628502031773129;0.12868021123072548;0.2782951975332315;-0.018176743679697793;0.20805776040462476;-0.08860029774418354
B;-8.1;0.32778960788118106;-0.044326670659758705;0.1738555959028112;0.006122235239060636;0.22126019018858578;-0.02401655314968032;0.2674653197700465;0.14655673021957405;-0.05512887621277507;0.02064462583575377;0.1705040569411942;0.12961972471615102;0.28518384717690015;-0.021814398634952603;0.20594071032310968;-0.0923342841695165
B;-8.0;0.3313984624173223;-0.046979823039716706;0.1822305190335456;0.0028106592898140548;0.2228623309230482;-0.024811128218834355;0.2833549824795938;0.14853754348398374;-0.054272621293229406;0.018138140085153687;0.17808509956858654;0.13003144699584634;0.2918687688948589;-0.025130853462891345;0.20516010782266836;-0.09535975250425288
B;-7.9;0.3358423660403549;-0.049256729954738177;0.19120527613856453;-0.0003179755338340584;0.2253268619408768;-0.025402058041472664;0.2981859485778724;0.14937525173554533;-0.052268070100207176;0.01588843339905832;0.18512105974799553;0.1295756785061295;0.2979636297945989;-0.02826993488757168;0.20582360933315247;-0.09761781696334193
B;-7.8;0.34124545024148567;-0.05118260883813619;0.2008124329640264;-0.003285475788224801;0.22861400051485958;-0.025860203229178147;0.3112506933315071;0.14854328549936824;-0.04931527578090211;0.013725101654314287;0.19116535795316292;0.12793798488145836;0.30308978014560584;-0.03138254291561626;0.20802653105209412;-0.09905656840425614
B;-7.7;0.3474400144179235;-0.05277568403970978;0.21092651799634865;-0.006095226412405452;0.23261570875914117;-0.02619100445439493;0.3226019665953892;0.1461654273617108;-0.04551895355661717;0.011649177649383446;0.1962143985253153;0.12518715445786466;0.30721499619213066;-0.03447145698434806;0.21156529614582276;-0.0997504031840819
B;-7.6;0.354190599018132;-0.05403128404177693;0.2213931610029256;-0.008735112867395145;0.2372106636149809;-0.02637240982720268;0.3325088541752903;0.14254029397833134;-0.04093023999859913;0.009733198541406196;0.20037945660190282;0.12148318348213127;0.31042453960979177;-0.03747012568268726;0.21614341914904855;-0.0998115024094739
B;-7.5;0.3612549433118346;-0.055011405158031934;0.23203523317644326;-0.011228678423545801;0.24227012208369736;-0.026415925746571034;0.3411399573239384;0.1379043663885109;-0.03569604654689318;0.007957908892846532;0.20375155478227214;0.1169895418788589;0.3126911876895715;-0.04042156607413183;0.22150458785333438;-0.09934373904125593
B;-7.4;0.3683505447894522;-0.055779479132493925;0.24265318331364583;-0.013598037920110606;0.24765473822201045;-0.026325629412951912;0.34877141196857764;0.1325854429514619;-0.029953044663113992;0.00632520386029789;0.2064867436503386;0.11192627297893987;0.3140392557843059;-0.04334997281698527;0.22735465713069747;-0.09846753273899456
B;-7.3;0.3753774927457503;-0.05630397303718926;0.2531762271063762;-0.0158221431292338;0.25328187101415445;-0.026090720890160846;0.3554618084786174;0.12667550132841576;-0.023728193552234877;0.004886307398765943;0.20857606257902006;0.10632637329294203;0.31452426991852356;-0.04618498850519259;0.2335325135475026;-0.0972380654128635
B;-7.2;0.3822801535834799;-0.0565542924618585;0.2635599395451358;-0.017882925080945355;0.2590821940353969;-0.025707931214951074;0.3611671601650155;0.12017520910929314;-0.01705857472222938;0.003669758782312904;0.20995334003107402;0.10016987846587089;0.3141528210562612;-0.04887844853276846;0.23991429203017578;-0.09569656994620424
B;-7.1;0.38889334304881906;-0.056489480868802566;0.2736998455644315;-0.019750704145399922;0.26495188017888793;-0.025150945681359893;0.3661183194394413;0.11332283509239005;-0.009947556696739746;0.0027731440167295673;0.21069943377616518;0.09357006656097333;0.31307108642338033;-0.051312983877896734;0.24626624231788696;-0.09392682099273042
B;-7.0;0.39506992827845977;-0.056064046807069445;0.2835038059070847;-0.021393978693827975;0.2707948967235563;-0.024392930126946766;0.370538434312909;0.10634339633173173;-0.0023877827792571082;0.0022960287731699225;0.21089394207861023;0.08663245505949879;0.3114351059804088;-0.05336593795407918;0.2523735674768526;-0.09200552300776632
B;-6.9;0.4006321150466192;-0.055365135824308354;0.29283444626927135;-0.022854703645596608;0.2765058733271264;-0.023462954324410035;0.3744146114330107;0.099314702300906;0.005426267514634375;0.0021568703255780974;0.2105386379584404;0.07944038131764142;0.3090885580748317;-0.055159939601352015;0.25801404588951815;-0.09003262724993988
B;-6.8;0.4053562282162293;-0.05452218730092895;0.30151871214054715;-0.024196369126374684;0.2819610813825104;-0.022404121449644876;0.3777237310040924;0.09232925861819608;0.013233662218348208;0.0022302817961055155;0.2096395846544885;0.07210297502107288;0.30580221001260366;-0.056882111237184674;0.2629261755410983;-0.08812911743440033
B;-6.7;0.4091744359988425;-0.05360294732208093;0.3094871545167237;-0.025454212234641282;0.28709821519878886;-0.021250368935620934;0.3803523016511816;0.08535028309356285;0.020884267013663305;0.002427083122000795;0.2081589866245217;0.06463822718044643;0.3014423594615767;-0.05864193003213103;0.2670206264248183;-0.08634178388380143
B;-6.6;0.4120246314403655;-0.05268803454252424;0.3166722744456436;-0.026670939498265156;0.2918593914969545;-0.020040906498906885;0.3821617511794102;0.07832082464833823;0.02821226297390833;0.002639574446607895;0.20605365024229183;0.057060053118379805;0.2958463667963498;-0.06057394758212453;0.27021564532479836;-0.08471730301511293
B;-6.5;0.41365293533463543;-0.05185981071893497;0.3228918629585653;-0.027881174295631084;0.2960997421728866;-0.018798602033697875;0.3832852408066829;0.07145827928029869;0.035018062013948636;0.002819825769962314;0.20338096434765163;0.049520597630626995;0.2889337794322291;-0.06275893241073227;0.2722177193749742;-0.08337900723918246
B;-6.4;0.4138317078814495;-0.05117032677833411;0.327984086622644;-0.029102957918107464;0.2996819211857442;-0.01753749365779189;0.3838957726729193;0.06499861238742266;0.04115155037059015;0.0029556040369147496;0.20021210894379937;0.04217008386094001;0.28070558466145634;-0.0652207979424606;0.2727692067506471;-0.0824308558028628
B;-6.3;0.41229339391272646;-0.0507329518561459;0.3317592056881562;-0.030388261156879537;0.3024698184030399;-0.01628439716211716;0.3841228763094078;0.05915663932706394;0.04638260104275904;0.002969196463745938;0.19662486140797686;0.03517845263444741;0.2710197579489222;-0.06809588205194483;0.27154996323259084;-0.08201580012631382
B;-6.2;0.4087848759070809;-0.05065028856982501;0.33403651477046026;-0.03178299521321648;0.3043287955124736;-0.015065736274285868;0.3841005356449987;0.05414713803218474;0.050495482202885356;0.002792028961745352;0.1926935988693126;0.028709867366533803;0.2597642337533008;-0.07149992661891424;0.2682649608361105;-0.08226356650501732
B;-6.1;0.4034209071954784;-0.05088388937218902;0.33487311419041;-0.033267607170461844;0.3052661414040969;-0.013891801715849361;0.3837700435987452;0.04990112100836219;0.05353818658779641;0.0024369398286889776;0.18840990801907065;0.022731500998610876;0.2470855522730675;-0.07535931346568603;0.2630643489506923;-0.08311150690599867
B;-6.0;0.3964340892864531;-0.0513656709598278;0.3344046737145394;-0.03481094325375533;0.30534709270386173;-0.012767300159876704;0.3830052119716356;0.04624872087798382;0.055633679243938694;0.0019280830504611046;0.18375251531849113;0.017153842499428862;0.23317443260829318;-0.079572071077612;0.2562268162853458;-0.0844471548049528
B;-5.9;0.38797359549300303;-0.05201359546704065;0.3327065295335796;-0.03636799750631159;0.3045652800596734;-0.011703962351643504;0.38175045263023666;0.043123756111834055;0.05686773803591638;0.0013133429751723824;0.17867393972966283;0.011914803251560802;0.21828204683810082;-0.08398074003002876;0.2479787318686837;-0.08616049401829429
B;-5.8;0.37824271880939975;-0.05272514535319495;0.32988978649846246;-0.037884170950456486;0.3029366932422253;-0.010710570733787783;0.3799311158133314;0.040424546170156006;0.0573675379944909;0.0006539712432651612;0.1731204412173284;0.006927094007717294;0.20270302702879217;-0.08839880057891314;0.23861344296803466;-0.08811299686997831
B;-5.7;0.3673894448724244;-0.05349209976272995;0.3260453561178913;-0.03936003208623262;0.3005270033726841;-0.009788436001472611;0.3774883315985802;0.03804693522095226;0.05719097979637855;-6.318882740252718e-05;0.16713806673092968;0.002170953394608599;0.18650456991753916;-0.09282525412236087;0.22827012951912007;-0.09026449416770888
B;-5.6;0.35551026295605226;-0.05432606986834809;0.3212315538027415;-0.04080509405206634;0.2973818289348813;-0.008941541322215585;0.3743902095579186;0.03592691394105163;0.05635624120985305;-0.0008637190371860726;0.16077988179465574;-0.0023474394922020636;0.16971392448959843;-0.09728635924249307;0.21702542226154709;-0.09260054387214733
B;-5.5;0.3428543938323205;-0.05519076193544148;0.3156066990232489;-0.04220831075468201;0.2936163617320524;-0.008165851384779543;0.3705419756478854;0.033890314840911984;0.054997089001111554;-0.0017438237296696357;0.1540947362473597;-0.006688759142175815;0.15246610232553426;-0.10174456861210501;0.20514189891766232;-0.09503406441548545
B;-5.4;0.32966688188004056;-0.05605571601474413;0.30932887008522414;-0.04356195170579724;0.28935056848304974;-0.007455805222895684;0.3658552627852618;0.03176603786671306;0.05324346021366555;-0.0027034190703645322;0.14713897726948044;-0.0109083015331084;0.13487944248135442;-0.10617455871538617;0.19286877024893645;-0.09748528410212653
B;-5.3;0.3159936547251849;-0.05686286122964024;0.302406215295683;-0.044828196336797355;0.284520947221905;-0.006832746874006368;0.3603374274169733;0.029584768927057414;0.051102233353195636;-0.003707868515713031;0.13984946396541087;-0.015027476205471402;0.11716604408059439;-0.11043771767411137;0.18033347741690786;-0.09987408721563629
B;-5.2;0.30185908754300605;-0.05753172526836181;0.2948257028471648;-0.04595364884528941;0.2790232724754791;-0.006325207955057088;0.354014689937026;0.02741637057221835;0.04857594949623767;-0.004701864965787728;0.13212763409923323;-0.01907301405449413;0.09960997544482364;-0.11433729112089352;0.16768364673095348;-0.1020976118367658
B;-5.1;0.2872506710337266;-0.05804280480821156;0.28656834315484936;-0.04692128361978476;0.2727995708605544;-0.005947794145757079;0.346936206005827;0.025329386261686793;0.04562755357314696;-0.005673852488249587;0.12395106163644609;-0.02302340674302572;0.0823163109885634;-0.11780849006794103;0.15493058092029433;-0.1041325862203637
B;-5.0;0.27213201061750425;-0.05837564909342419;0.2775988800776865;-0.04771191881119741;0.26577399025512527;-0.005717256507858259;0.3391640974142902;0.02341565548064306;0.042205166950519235;-0.0066095942810919794;0.11528462920964788;-0.026853100854756562;0.06539261367483107;-0.12077878037881806;0.14206684951478454;-0.10595838248299572
B;-4.9;0.2566577746869765;-0.05844554925996093;0.2679977666774338;-0.04827761379706974;0.2579412264724823;-0.005648771920426121;0.33069595458758627;0.021649837801068994;0.03841402351132661;-0.007451364513975989;0.10609809815196947;-0.0306132560724528;0.049158650264308434;-0.12306512119345925;0.1293718718049588;-0.10744310707428362
B;-4.8;0.2410205896112565;-0.05817959942364492;0.2578777273973465;-0.04858043251588473;0.2493423995469577;-0.005748792064940389;0.32152505036363266;0.019972213968346253;0.03438782277453445;-0.00814965589214367;0.09640429661338068;-0.034352125193254146;0.03390478088767601;-0.12451940326422761;0.11713784753428147;-0.10846396598391284
B;-4.7;0.22533858574223942;-0.057478337370287846;0.24729164627542133;-0.048560634694625904;0.23992994554177116;-0.0060392393218489104;0.31165159409313414;0.018388556758963226;0.030205556468022365;-0.008635828467250306;0.08611434702905907;-0.03813534631998383;0.01997057714855721;-0.12492232465552977;0.10563032095288616;-0.10887814718599831
B;-4.6;0.20974202633636452;-0.056249066078249754;0.23630407961121236;-0.048163690101596046;0.22967639707352383;-0.006537764742844843;0.3010837723182931;0.016897853224849158;0.025960764075295018;-0.008843373858291592;0.07516498563790552;-0.04202278197662723;0.007688461331328611;-0.12406956705831718;0.09511903585955572;-0.1085488840017863
B;-4.5;0.19428044133463196;-0.05453903053206677;0.22497100331225894;-0.04741950006257234;0.21867023986755996;-0.007224855149210896;0.2898947532172871;0.015497655294370638;0.0216666481906147;-0.00880222904164274;0.06369148691847126;-0.04595271637424592;-0.003022831395525394;-0.12206386706832362;0.0855482181745355;-0.1075306969749672
B;-4.4;0.17894797759633363;-0.05243392874884201;0.21332432419248626;-0.04637902055935239;0.20700800647522755;-0.008073628395709243;0.2781727224782058;0.014201615299173298;0.01728474205926034;-0.00857032494388843;0.05184814756678069;-0.04983569281724565;-0.012382717932705845;-0.11909124052378406;0.07673537558512589;-0.10593741418138425
B;-4.3;0.1638535773095544;-0.05000670330699375;0.2014701875537792;-0.045092829251478506;0.19485997738780192;-0.009049180409110846;0.2660204638981476;0.01297576051631344;0.012896115784018392;-0.00818523109921454;0.03988497280795844;-0.053583681932773075;-0.020476931711098878;-0.11530777761227551;0.068663996438179;-0.10384138466337589
B;-4.2;0.14909688284228828;-0.047349633434014216;0.18951580142845614;-0.043623379045091504;0.1824156547425808;-0.01011060475109904;0.2535508028756386;0.011784638314737528;0.00857365975058233;-0.0076972810129340985;0.028080879753496824;-0.05709260925881887;-0.027449897512106247;-0.11091303543074993;0.06127359266681953;-0.10134154646608451
B;-4.1;0.13464030034255003;-0.044500392448854065;0.17746007515750328;-0.04198897340538199;0.16969348309050503;-0.011247511911514074;0.24081367616005878;0.010662169840286229;0.004253754960429568;-0.007134351217760404;0.016440404785281082;-0.060339506157950584;-0.03343912156397444;-0.10598988589708913;0.054424569852329796;-0.09849867133955126
B;-4.0;0.12045784278681637;-0.041477430013300065;0.16530418414155612;-0.040196521538358176;0.1566984318134388;-0.012454156110095482;0.22785234612981853;0.009643211351290759;-0.00010946711643899931;-0.0065086850104512095;0.00493955335764884;-0.06332245367271794;-0.0385173543483317;-0.10057649217584519;0.04803045608196044;-0.09534571413454085
B;-3.9;0.106477199508479;-0.038349451079582764;0.1530356247242537;-0.038282124372828186;0.14346506821737215;-0.013712020320251206;0.21473313454460818;0.00876976974940824;-0.0046156917516357865;-0.00587168188105025;-0.0063829458725228605;-0.06598665318449592;-0.04294082379762365;-0.0948288189978923;0.04184802901312956;-0.09199270845889718
B;-3.8;0.09261763939093548;-0.03518106181441638;0.14063572723108209;-0.03627883042296798;0.13001810787693557;-0.015004376655277873;0.20151643260256247;0.008086577965258357;-0.009369866325928733;-0.005271883956934786;-0.017511183318886125;-0.06828808759668537;-0.04696247657602015;-0.08889345744805155;0.03563438825208198;-0.08854564864582226
B;-3.7;0.07904890528806519;-0.0320143225681937;0.12824518329695422;-0.03422242841362433;0.1165458362797942;-0.01629779513617091;0.18831478292198156;0.007548749072201488;-0.014199530395397453;-0.004710143817507451;-0.02819108189591013;-0.07017378965773613;-0.050503651055606724;-0.08284712483488033;0.029531882448559088;-0.08501963103732457
B;-3.6;0.06601269715519997;-0.028897282306171057;0.11605500836892979;-0.0321575675516117;0.10330013361824264;-0.017549318598978125;0.17526766914667924;0.007084439687431665;-0.018855726338427026;-0.004182788552062;-0.03806422351155714;-0.07156678617976864;-0.053429688748929394;-0.07677744820720012;0.02376325205164953;-0.08142177883294899
B;-3.5;0.05364828753875983;-0.02584029308532454;0.10417704261035432;-0.030097935622659833;0.09040941146025183;-0.018738549114647007;0.16244597139252548;0.006657300252331133;-0.023190062589958593;-0.0036716764504785004;-0.047005236043244025;-0.07247580405755993;-0.05561319850992241;-0.07069082916157399;0.01849910620521733;-0.07773077595176847
B;-3.4;0.04211823998500641;-0.022849578825320016;0.09273760600530068;-0.028056385777904147;0.07801597600358079;-0.01984409128966025;0.1499232438782805;0.006221829717055538;-0.02702490362123733;-0.003151966862493083;-0.054872180619125466;-0.07291366437263758;-0.056888550562725904;-0.06458196172529362;0.01395356920116253;-0.07391357321069947
B;-3.3;0.031559430848101755;-0.019993991081889817;0.08186693178638826;-0.02608419164205955;0.06632192563012396;-0.020824005863727457;0.1378327782539115;0.005742253418411725;-0.030233947393641714;-0.002650290077506945;-0.061359289492141755;-0.07277513908984279;-0.05731541606099988;-0.05860386152544006;0.01014406475973395;-0.07003645163502359
B;-3.2;0.02204782807315553;-0.01734128945029134;0.07165528955955303;-0.024227907477309074;0.05548285652466767;-0.021642034865950066;0.1262873981156165;0.005202328265733858;-0.03275905438423443;-0.0022013701851193446;-0.06623601240274901;-0.07196633467942881;-0.05702642709109007;-0.05291479834888868;0.007002172586854982;-0.0661803093528821
B;-3.1;0.013775262900546537;-0.014962911207142326;0.0622698520845546;-0.022544907204967046;0.045748345378374466;-0.02225076278650473;0.11543588194318044;0.004543608762778373;-0.03439953345260793;-0.0018220316320824992;-0.06912857977637987;-0.07037986754819237;-0.05600698340175736;-0.04766276294600935;0.004638143017467122;-0.06239703300658572
B;-3.0;0.006909337680358618;-0.01292677867470271;0.0538611482452378;-0.0210888352342975;0.03734600936194887;-0.022605789281265665;0.1054165733447725;0.0037147968609114734;-0.034984770309328006;-0.0015318340908772043;-0.06969518096177829;-0.06791125845531187;-0.05427282218239249;-0.042994451949081025;0.0031261893242806593;-0.05874218699583533
B;-2.9;0.0013769079443068932;-0.011212645379950814;0.04639371209472465;-0.019840379298777577;0.03021133472302928;-0.022715814956315583;0.0961958299830421;0.0027415093564062687;-0.034591611693074675;-0.0013205987940887454;-0.0681541799451324;-0.06466187159717052;-0.05187575094079566;-0.03887130292094643;0.0024056491335429087;-0.05520649607856587
B;-2.8;-0.002942006521669427;-0.009772450572341107;0.039791825610096865;-0.018759639496343183;0.024210511738203877;-0.022604588306357698;0.08769103994120186;0.0016612975373284655;-0.03333093684063204;-0.001161114210167291;-0.0648718399191921;-0.06080393902899761;-0.04882534069350708;-0.035186747565563614;0.0024352787900943085;-0.051748469894874916
B;-2.7;-0.006215030485723361;-0.008574183842194216;0.03395537193584275;-0.017813491861545572;0.01919320730121754;-0.022291653988905757;0.07983515770181526;0.0005319929144151914;-0.03140930062279157;-0.0010589772878049075;-0.060175139237941266;-0.05643237511286481;-0.04531153982138214;-0.03190697404143261;0.0029899618059747723;-0.048379914657326495
B;-2.6;-0.008646987412621598;-0.007573550641199134;0.02875587644161648;-0.016958583410979777;0.014966111285707129;-0.02180425907541661;0.0725351168588757;-0.0005777588894537722;-0.029070595924295617;-0.0010160236517977594;-0.054472655295713324;-0.05167153750176334;-0.04153378971467614;-0.02897298158865169;0.0038216360335221466;-0.04510446071543939
B;-2.5;-0.010254152125396487;-0.006746896408227343;0.024191125468961516;-0.016179355114134708;0.011506998871874785;-0.02115086415298162;0.0657571538722026;-0.0016725756103173062;-0.026285371000065005;-0.0009995736741581496;-0.047937936453269714;-0.04665242886873333;-0.03740112285434272;-0.02631068987555185;0.005031189923361268;-0.041878714595055655
B;-2.4;-0.011022948245987152;-0.006081534394474453;0.020281513840609833;-0.015469762595456515;0.008830242736664218;-0.02033355860746955;0.05948973000120006;-0.002767894584440267;-0.022995017637992277;-0.000982237105390027;-0.04066192714659955;-0.041470231671134616;-0.03282514505066203;-0.023872663623286883;0.0067301120664104985;-0.03866930842093819
B;-2.3;-0.011015975590234817;-0.0055327411668884;0.016987691925308468;-0.014797720758741306;0.006853233029140426;-0.019372389020800185;0.05365586464826322;-0.003856269904491061;-0.019206703964329108;-0.0009188097461878542;-0.032956202534859536;-0.03632166682181159;-0.027693410771340687;-0.021532602080159613;0.009021970757900455;-0.03540995615823839
B;-2.2;-0.01028678604110489;-0.005057084773628873;0.014275809143873275;-0.014133057784317948;0.00550212536770367;-0.018286861986428704;0.048181286469493045;-0.0049351172012372935;-0.014912692092261537;-0.0007627757049633033;-0.025113120417193713;-0.03139919699133964;-0.02187948362097991;-0.019164664198052073;0.012027973789962232;-0.032032605975810036
B;-2.1;-0.008989068548327594;-0.0046393718902866254;0.012058957781128754;-0.013456152367106178;0.004659140574649001;-0.017088685310588936;0.04303013230312924;-0.005954737401344445;-0.01033168758642855;-0.000542965050273736;-0.01731764485873999;-0.026697831702237274;-0.015668913770564785;-0.01680191378123741;0.015442590336791184;-0.028585748292571544
B;-2.0;-0.0073300584434417;-0.004265495639480754;0.010217153148797564;-0.01274388588163422;0.004166452145286215;-0.015791146436825443;0.03816083879137544;-0.00684353243287017;-0.005774617526962622;-0.0003078499277782143;-0.009786174838525952;-0.022180502836170568;-0.009476456624141427;-0.01450830173612605;0.01881798150458458;-0.025147289027867892
B;-1.9;-0.005396032027492836;-0.003936311469985299;0.008709239990100315;-0.011993130907899996;0.0039778986137228856;-0.014397753673664582;0.03357002259371811;-0.007579845395942808;-0.0013645611324486495;-8.255894805930808e-05;-0.002562926972355939;-0.01780660462221295;-0.0035135170467679444;-0.012336708567625365;0.0219482209390085;-0.021763716741572736
B;-1.8;-0.003281817134114462;-0.003655990041091961;0.007489103902180716;-0.011202566379127532;0.004044292577109587;-0.012911322749364018;0.029258921545486594;-0.008138675947400031;0.002754417244103635;9.945021640778151e-05;0.004329147251574739;-0.013509454965990653;0.0019669601640623924;-0.010357965549109949;0.02458476179810898;-0.018494003639534462
B;-1.7;-0.001180244563689925;-0.0033925541640558166;0.0064394530432299035;-0.01033851068020386;0.004197895969406673;-0.011351425346095567;0.02514860345230918;-0.008460265440623171;0.0063402863892632055;0.00022440851248539673;0.010549579933440967;-0.009372520291795361;0.006714561376803374;-0.008553182996738684;0.026442101319730682;-0.015362536223526568
B;-1.6;0.0007482324628895753;-0.0031114036730501837;0.005461747117671223;-0.00936822865080611;0.004293013502868703;-0.009737724665291658;0.02115574235597162;-0.008500173132803823;0.009218980943549226;0.00029638441708801366;0.01575260548740598;-0.005522102210179014;0.010584980115316611;-0.00687127878312932;0.027348876087394558;-0.012367475079591905
B;-1.5;0.0022673258214513936;-0.0027801801998963427;0.004408820297317817;-0.008255536138365827;0.004125649263059472;-0.008093097923653758;0.017199658188744138;-0.008182001878815015;0.011064980896814625;0.0002805157097185429;0.019610893722673772;-0.0019821983873948845;0.013208451906038476;-0.005325646066836498;0.026886166114625354;-0.009561350604645469
B;-1.4;0.0031584961304922388;-0.0023678240876696677;0.003144761522078099;-0.006966372369301865;0.003506847401258284;-0.006439027285933818;0.013200145901187454;-0.0074370557018959005;0.011586961635490667;0.00014926585788632707;0.021799506741174035;0.001203916832291707;0.014262760134279517;-0.003919245125850068;0.024687610871958476;-0.006986740550596338
B;-1.3;0.003486252888681207;-0.0018808024476442142;0.0017192850623715117;-0.0055146027951353815;0.0025127503991644318;-0.004773621692513608;0.00916677413402045;-0.006312871597420777;0.010942149561033787;-6.756273163155413e-05;0.022385314556776947;0.003987060367021122;0.013914565687612956;-0.002626377352717313;0.020967992613490694;-0.004611129434426431
B;-1.2;0.0033837736903699067;-0.0013373692882883148;0.00022584791029700568;-0.00392845033803102;0.0012852613676965774;-0.0030896241685125503;0.005139711360431676;-0.004885430298768423;0.009383901034317077;-0.00033522064021429543;0.02158364546876701;0.006361054671611299;0.012416980816463585;-0.0014332421599316802;0.016049618677799415;-0.0023951334192604534
B;-1.1;0.0029904627053412014;-0.0007495407733157933;-0.0012356648520093216;-0.002229682076616335;-3.469584871318432e-05;-0.001377559980247689;0.0011304106474483433;-0.0032321314934868894;0.007213140789692929;-0.0005908129105334226;0.01944437383400821;0.008176068582636642;0.010138884453529506;-0.00026684219571304624;0.010371474253782154;-0.0002626185072589493
B;-1.0;0.00248499340115238;-0.00013428955670402587;-0.0025404172765046695;-0.000446650718633812;-0.001270332668351415;0.00037491779215770293;-0.002838376704349166;-0.0014469085300352624;0.004794155325752669;-0.0007631280287885289;0.01607201881822995;0.009281158814995472;0.0075204219787883275;0.0009512302297798314;0.004456056787174312;0.0018738630462982186
B;-0.9;0.0018864816071904045;0.0005027563704507187;-0.0036756186878701413;0.0014075248552973818;-0.002389966742445182;0.0021630401950067935;-0.006749456319240288;0.0004398284464492974;0.002174176913773529;-0.0008576663725294864;0.011631996107253073;0.009763729661598664;0.004565293507906354;0.0021921561118691812;-0.0016686616469723248;0.004004706592085405
B;-0.8;0.0011772421701614633;0.0011604002999172636;-0.004653195811306077;0.003325705878455487;-0.003397655755497553;0.0039794254183291855;-0.010598232242797323;0.0024134757174745225;-0.0006601306393765327;-0.0008881116810899314;0.006234894271104352;0.009710236878287759;0.0012140209790176826;0.003422994321547357;-0.008052539603776054;0.0061101495967204045
B;-0.7;0.0004321027501408281;0.0018244317820785838;-0.00542578282373718;0.005283988379061633;-0.0042085582314488335;0.005822626419508481;-0.014346006217000884;0.0044190284039205;-0.0035745474592010495;-0.0008520666047182601;0.00015925458681831373;0.009233082471511;-0.002445130758737868;0.004612974701623251;-0.014562759033897699;0.008191019804120181
B;-0.6;-0.00028428108645606187;0.00248160172644063;-0.005954058911736837;0.007259509706766032;-0.004748921142930129;0.0076899982549365475;-0.017955274576187286;0.006405949143882594;-0.006457159281740843;-0.0007526444839358604;-0.006312782563121289;0.008460977147276783;-0.006350978590274892;0.005724779826938864;-0.021099766200056713;0.010242006661602687
B;-0.5;-0.0008732278059522258;0.0031250223167020863;-0.006166339298729895;0.00923885834712479;-0.004922736875045075;0.009590570138456656;-0.02144310100679725;0.00831709826844218;-0.009065031302436743;-0.0005276018568292073;-0.013273088381579257;0.007179616151058887;-0.010162752678708031;0.006847756835542285;-0.02727621794719326;0.01234001263202078
B;-0.4;-0.0012010352237954436;0.003746469894478466;-0.00596507950696612;0.011207490348869698;-0.004602712408747323;0.011538442784112313;-0.024836091218105594;0.01008197160017632;-0.011070132473472327;-8.774073438999608e-05;-0.020892905852203825;0.005066511662845663;-0.01340631443922824;0.00811514871550667;-0.032557098569932386;0.014595427841009645
B;-0.3;-0.0012430168548451803;0.0043483192056381625;-0.005332141984110805;0.013162096668319911;-0.0037686775203980005;0.013534636069236328;-0.02816439101302759;0.011675088707344017;-0.012375221206792908;0.0005989575497000743;-0.029285990210770052;0.0019829195080491857;-0.015913849651340684;0.009584227597369654;-0.0367639559896471;0.01705025905020907
B;-0.2;-0.000973564508441882;0.004933662534222449;-0.004248578605762887;0.015100663323734054;-0.00240199774908767;0.015581209199231338;-0.03146428041444871;0.013072166797044815;-0.01287685373954961;0.001569457286543674;-0.03860540930253187;-0.002241436880801473;-0.017495811301333042;0.011323665362885649;-0.039698791683656864;0.01975328508349783
B;-0.1;-0.00025208597962667056;0.005489097211274441;-0.002618534235317327;0.01700177942812342;-0.0003638062969191225;0.01768743765113534;-0.0347356192587398;0.014194284765326248;-0.01225489597181273;0.002894525370687795;-0.048833952658136504;-0.007791512554641944;-0.01774307002929465;0.013423856830712566;-0.04088107029249777;0.022791262920724087
B;0.0;0.0010394648765323922;0.006002253348430742;-0.0003649537088090682;0.0188443371828253;0.0024639675122770655;0.019857704283563038;-0.037969508422965426;0.014969801360636747;-0.01024547329704184;0.0046251724094865665;-0.05987317661237679;-0.014759984619839628;-0.016340127094353285;0.015942689839906876;-0.03993195920225734;0.026226958453902327
B;0.1;0.00307488170088277;0.006456446468837029;0.0026315283382292165;0.020605048895918188;0.00624574268879563;0.022107832537543004;-0.041171881957830614;0.015312017000423062;-0.006464821499533535;0.0068516146319836935;-0.07177983363196372;-0.023424476863675103;-0.01276847336620257;0.01900335364769301;-0.03625797735672709;0.030172710166985972
B;0.2;0.006011656148910305;0.006836529097130395;0.0064772965491872725;0.022262179399374915;0.011130712469391568;0.02445049099580654;-0.04434725171184528;0.015139739885176695;-0.0005615424071248043;0.009655091936845217;-0.08458282691524399;-0.03402247084986998;-0.006558814780217581;0.02271605700415691;-0.02931904791986817;0.03472983536665364
B;0.3;0.00974699902850773;0.007155506913045784;0.011089272254618976;0.023821881648162346;0.01701184047896298;0.0268655735856953;-0.047509522785314395;0.014477242641228294;0.0072681877988838295;0.012981965658560135;-0.09816840973512075;-0.04634966914459637;0.002031807984483436;0.027013514787531;-0.019419478357596276;0.03983903063602412
B;0.4;0.014113895972442947;0.0074330060530369835;0.016337576627986294;0.02529801509404983;0.023714015914938713;0.029326975004323685;-0.050678474778271365;0.013379520962776503;0.016685171856847703;0.016745341562057092;-0.11242387052784064;-0.060114347296750026;0.012572825240127372;0.031788557306712484;-0.007075466547853182;0.045402914777548986
B;0.5;0.018942442015292826;0.007688671212195075;0.022087698245384146;0.02670312537411501;0.031072706762030222;0.031801040027790606;-0.053862103308791376;0.011890310619255828;0.027371293159698773;0.020858190807832244;-0.12711979645456228;-0.0749526104591447;0.024610605384133954;0.036923278636740164;0.007203488802382196;0.05131916558735483
B;0.6;0.024026796437928155;0.007945954063082183;0.028178408399730515;0.02805360057705375;0.03888731044480842;0.034249514394192104;-0.05706894165763643;0.010068478738723297;0.03893062304882111;0.02521393565644292;-0.14200255816901386;-0.09043512508507012;0.03758835301286556;0.042274046711365365;0.02278757645188101;0.0574624086173019
B;0.7;0.029308953544376237;0.008210212510896042;0.03455700587139887;0.029352597189887142;0.04707777739729835;0.0366643443718786;-0.06031678813672592;0.00793740471971427;0.05122525983940207;0.02977664410098768;-0.15706899351777093;-0.10647567093293597;0.051372089747161453;0.047806619593127486;0.03948376083555871;0.06379950903785492
B;0.8;0.03476569172369359;0.00848234297905659;0.04119531832047585;0.030599925849511322;0.055598080686650064;0.03904173136555755;-0.06362159533758582;0.005507403458551607;0.06419177575929513;0.0345291588400487;-0.17233532088645553;-0.12304816212615366;0.06592566860929772;0.05351178894893316;0.057214060395846644;0.0703194357910979
B;0.9;0.04028523101456649;0.008774671949420387;0.04800151620406368;0.03180480261197616;0.0643115525984097;0.04136807754962479;-0.06700463550580338;0.002826276697964314;0.07756901827894858;0.03940547279657469;-0.1877820825615233;-0.13997880092480797;0.08096296677681192;0.05931809325430226;0.0756006858262559;0.07695489064495042
B;1.0;0.045767223799774825;0.009097429099671928;0.054891503659415974;0.03297549934359534;0.07309062673063593;0.04363205899824951;-0.07048647389356155;-5.9938095717804174e-05;0.09111475482744247;0.04434453809804406;-0.20340457939769951;-0.1571166001200699;0.09622738904906036;0.06516149460281628;0.09429695101439517;0.08364492617014818
B;1.1;0.0510821395115606;0.009463749280415712;0.061756205377900386;0.034121654165615745;0.08181535818267349;0.04580171043843073;-0.07406746390863983;-0.0031247391994395635;0.10461411284715094;0.049285286611640444;-0.21895615399710167;-0.17414877001766893;0.11137935112063069;0.07095635952351209;0.11294522955219222;0.09031514979461885
B;1.2;0.05606599523466116;0.009891946921167794;0.0684608351314111;0.03525594077196459;0.09034310622927322;0.04783540081261339;-0.07774315244847241;-0.006338377132903972;0.11780517784072941;0.054152605679886;-0.234097855412279;-0.19066548239201486;0.12598162623496645;0.07659215754962823;0.13109961833782702;0.09687080485231725
B;1.3;0.06066813289649353;0.010382517827951965;0.07495196206803811;0.036380155867688835;0.09862258434538873;0.04971504395148596;-0.0815097714599391;-0.009694445477596236;0.13061548468921114;0.05892117253537066;-0.24866378343987794;-0.2065023589600008;0.13990232048510265;0.08203313006254387;0.14862888776455296;0.10328193461064039
B;1.4;0.0648392039358967;0.010935360800254479;0.08117653818363735;0.03749603964756343;0.10660723634443059;0.05142129822793695;-0.08536051711837622;-0.013188865493561241;0.14298295949570416;0.06356783135906952;-0.26246784392223077;-0.2214867159029894;0.15301134209309897;0.08724428856826183;0.16541289493026312;0.10951964243458434
B;1.5;0.06840351420169632;0.011573618479645553;0.08699371313621107;0.038618128329932944;0.11412754728346997;0.05291810511897488;-0.08929944088075281;-0.016775095159491826;0.1545758774547581;0.06800184299597145;-0.2752443356051515;-0.23522043924505143;0.16483105353989824;0.0921036809892346;0.1809210321498096;0.11547726223336952
B;1.6;0.07120799006422551;0.012317719011816664;0.09227969821433213;0.03975888241110148;0.12102601777232636;0.054176965951679534;-0.09333344204359939;-0.02040616468158385;0.1650818273129655;0.07213819568204904;-0.28679259498923404;-0.24736587019434708;0.17494016516392907;0.09650194784102606;0.19466512987009033;0.12105862252624355
B;1.7;0.07305211970130543;0.013192350567874378;0.09687469677125371;0.040936103830872206;0.12712000764494213;0.05515461800402832;-0.0974602145295389;-0.024031322059043347;0.17414429167506995;0.07588023793244503;-0.296783028320708;-0.25746260627487816;0.18279338026697278;0.10030384193167574;0.20606379085059956;0.1261450532967352
B;1.8;0.0737510771966523;0.014221151267117982;0.10063104986574878;0.04216595942602108;0.13223803730423533;0.055811976601180646;-0.10167797383424393;-0.02760209822612536;0.1814247975573906;0.07913583563185345;-0.30491425454236953;-0.26508264083852007;0.18788299024443944;0.1033820077186034;0.21456893197551175;0.13062502417008748
B;1.9;0.07339174957305872;0.015384724649351256;0.10359604437859993;0.04343737668247005;0.13642660192546607;0.05616638122227702;-0.10598543436487518;-0.03112681503347714;0.18703300431635217;0.08192829642765886;-0.3112859893479678;-0.2703729540434918;0.1904244278281535;0.10578145751207124;0.22037332118523878;0.134538374646068
B;2.0;0.07213562627017112;0.01664975689302839;0.1058698164646259;0.04473248630383786;0.13979700760191527;0.056249368807424815;-0.11037759776917078;-0.034629845221313627;0.19121487704913953;0.0843169873599825;-0.3160954290459035;-0.27363732942468033;0.19083351961748196;0.10759797212867106;0.22388881100191682;0.1379688633272771
B;2.1;0.07012645871194678;0.017995601735551148;0.10754489844976511;0.046033591108926686;0.14243434785956843;0.056093811017324136;-0.11485875841011506;-0.038129932364947994;0.19414007041231773;0.0863395152363644;-0.3195503217819047;-0.27514070142280467;0.1894639885316538;0.10890372675413396;0.22542359546353286;0.1409815343833536
B;2.2;0.06754694826759966;0.019395496787634414;0.10874201837987307;0.04731925479106014;0.14445503738961918;0.055740965230373085;-0.11943273324293102;-0.0416532153402307;0.19604113947666146;0.08804979856569872;-0.3219171514757564;-0.2752306338944668;0.18677157695484503;0.10979524633578208;0.22539012510861944;0.14366275538191609
B;2.3;0.06446561967726083;0.020826744650409346;0.109494577421545;0.048583144059244354;0.14590646489653736;0.05520190387023316;-0.12408545310459917;-0.04520232353499232;0.19703392956254273;0.08947731737332365;-0.32324598552080896;-0.2740217346783318;0.18292610692727518;0.1103178829371032;0.22397643923895938;0.1460495948888374
B;2.4;0.060915449629854734;0.02227380372381127;0.10981195804754584;0.04982272346159888;0.14680926607710632;0.054480720409062044;-0.1288020123294622;-0.04877257180040706;0.1971742442121016;0.09063659558956427;-0.3235347776876054;-0.27155303307180434;0.17800026086227927;0.11049434366056232;0.2212726842594419;0.1481591121369119
B;2.5;0.05702775307467789;0.023701220744498208;0.10977114360976614;0.0510258348382262;0.14726224134203392;0.05360089836162629;-0.13356578255310225;-0.05237848888921448;0.19668807121595222;0.0915851637123053;-0.32291848034325277;-0.2680701899280882;0.17233079767001147;0.11041021480458646;0.2176427863880157;0.1500636253450791
B;2.6;0.05292608102271856;0.02507465548210508;0.10944426643866834;0.05218162875243415;0.14736071594572486;0.05258431188054313;-0.13835837776874094;-0.05603261646698332;0.1957925988396818;0.09237929318493077;-0.32152052522506924;-0.26380498636093863;0.16623368753908352;0.11014803340774293;0.21343527321130207;0.1518322024927672
B;2.7;0.048706866786298875;0.02639149940563268;0.10889832673374578;0.05327743026987175;0.14715470531669794;0.05145753219014715;-0.14318415730809608;-0.059744080472146965;0.19455498249995617;0.09303079133359748;-0.31948973736400355;-0.2589163679872257;0.15991891449597606;0.10974328805953615;0.20880150196322766;0.1534983991645591
B;2.8;0.044485048184123244;0.027653245835345786;0.10821669221028252;0.05429714222610915;0.1466996756783132;0.05025397943696319;-0.14805469893311862;-0.06352592471217378;0.1930396995525756;0.09354783733173022;-0.31701958262101204;-0.2535948707855802;0.15363493447483112;0.10923225375790668;0.2039014100425094;0.15509874632433895
B;2.9;0.04029153947975317;0.028865941504412795;0.1074213212049191;0.05523677938327953;0.14600399875884484;0.048986241117026985;-0.1529679065549301;-0.06737218334436035;0.19122599497686732;0.09392429740707087;-0.3141656754776241;-0.24787612073564613;0.14742147505324965;0.10861894545534234;0.19873784868606137;0.15663634084473
B;3.0;0.036151529181051245;0.030040024980301006;0.1065326322004978;0.056092763817264135;0.1450707599528709;0.04766703292824559;-0.15792338809357265;-0.07127598077557451;0.18907401218222475;0.09414901525312747;-0.31098345363223245;-0.24178393372838425;0.14129923241996512;0.10790134439640386;0.19328729413657975;0.15810933864338406
B;3.1;0.032219163382981364;0.031156523116792734;0.1056541834635798;0.056846949393049684;0.1439926159012046;0.046333788997510617;-0.1629231563044522;-0.07525538038497448;0.18675430097900314;0.09425754001668185;-0.3076946178767681;-0.23559428842958452;0.1356330357352178;0.10714887714245158;0.1878575746650828;0.15958195826451504
B;3.2;0.028642608939719594;0.032190114724684804;0.10488201536892561;0.057483319638659935;0.1428640144760287;0.04502045628970386;-0.16796283642512666;-0.0793255737400127;0.18445483530173412;0.09429190386944697;-0.3045000028785587;-0.22957804891071953;0.13078018623523846;0.10643549008181807;0.18277229827176633;0.16112056525932061
B;3.3;0.0255868875128904;0.03313095660590459;0.10433536492763018;0.057981956836297144;0.14178529378143878;0.0437702011380976;-0.1730498484727443;-0.08350937220563592;0.18233812549140094;0.09428506492828692;-0.3016575549761811;-0.22403353390802705;0.12712495527636314;0.10583068392912676;0.17834044426269013;0.16279066847554358
B;3.4;0.023208973346404704;0.03396653092215196;0.10412587535499895;0.058324457282179054;0.1408523345666559;0.04262360243196994;-0.17818900526201187;-0.08782672012045678;0.1805655903034804;0.09427011181045408;-0.29940912600705083;-0.21924602851173658;0.12503453758523886;0.10540199487196933;0.1748619539195584;0.1646553810110003
B;3.5;0.02146496457184277;0.03469273214627133;0.10421604467580892;0.05852121170110092;0.1400452319369201;0.04157127834433094;-0.18335347537544866;-0.09225032519684806;0.17909421223426136;0.09424604198510966;-0.2976737766131823;-0.21513481560367564;0.12437963680914166;0.10514103842401745;0.17226148630585492;0.1666985841403248
B;3.6;0.020249853302019005;0.035315292878547844;0.10452873833032328;0.05859119648493838;0.13931077920307722;0.04059064682450053;-0.18850946035833704;-0.09674083589912152;0.17780664616302033;0.09419894854961086;-0.29628469316504;-0.2115098717321624;0.12487560501067652;0.10501418665169737;0.17033864597718917;0.16887844832509646
B;3.7;0.019491322400119415;0.03581523069023529;0.10499448934763222;0.058549707055447264;0.1386088464261679;0.0396616391926381;-0.19362075322300765;-0.10125962031462743;0.17666125557748025;0.0941278024794654;-0.29509353349809864;-0.20823942738761936;0.1263364386446275;0.10500537022767187;0.16898794485474689;0.17117025457204083
B;3.8;0.019089284749140845;0.036174705342517655;0.1055236450731627;0.0584161903024496;0.13788424368617314;0.038757315387327296;-0.19864651491202956;-0.105761589375168;0.17558990018264797;0.09402751839538404;-0.29390818217094417;-0.2051426313717455;0.12850801255791744;0.10508853617943004;0.16805400816867788;0.17353868024311314
B;3.9;0.018998393509960465;0.03641211224287044;0.10609722332210758;0.05820151056267253;0.13712713396265563;0.03787401651368949;-0.20356637346136264;-0.11022728832337014;0.17452117205198903;0.09389251473637827;-0.2926838995401724;-0.20214886710391022;0.13124843183463852;0.10525108605584066;0.16743772289045378;0.17596407901919875
B;4.0;0.019199386830896614;0.03654451379871482;0.10671602348402232;0.05791288229914482;0.13634252298587413;0.03701474343984579;-0.20836466743038784;-0.11464377474370435;0.17341206143209575;0.09372118792775819;-0.29141893151940135;-0.19923651071347592;0.13448245712306672;0.10548943954561096;0.16708840911304357;0.1784366789311953
B;4.1;0.019599741763244083;0.036596462412413544;0.10732942708658122;0.05756792350012052;0.1354960774469518;0.03616500643563203;-0.21301433623355415;-0.11898151670346913;0.17213685755938446;0.09350013387201805;-0.2900005237321679;-0.19625085837552048;0.13794707740064638;0.10577363400192752;0.16681579536315994;0.180918393531047
B;4.2;0.02011079100787505;0.036595032566587804;0.10789238629546283;0.05718379307354482;0.13455735652981105;0.035312023085471544;-0.21749000304591792;-0.12321332407363883;0.17057227119436735;0.0932161875959645;-0.28832700434030034;-0.19304678277020582;0.1413891805122809;0.10607463998192213;0.16643541596755185;0.1833723423470186
B;4.3;0.020702210160690626;0.03650887908437461;0.10836125898148552;0.05677030778094938;0.13350612464455125;0.03444457731859085;-0.22176231329592433;-0.1273091113123681;0.16874222041086817;0.09287578525174656;-0.28630901630408623;-0.18957351756266938;0.14474196702767017;0.10639002194042568;0.16592963955179751;0.1857899154817204
B;4.4;0.021343782695465663;0.03628895139613775;0.10867885939565802;0.05633751414911714;0.13231526087697532;0.03354715560468424;-0.22579724124014522;-0.13123302811411985;0.1666969116516146;0.09248927187211375;-0.28383180958739374;-0.1857758450407192;0.14794936020756388;0.10671986109253506;0.16529986712273104;0.1881648316347624
B;4.5;0.022044219309988122;0.0359146514079276;0.10884229689432168;0.05588999490342417;0.13099470444434047;0.03262145326500043;-0.22957574524361224;-0.1349705110745858;0.16449214284177227;0.09206812152190214;-0.2808883434852518;-0.18168397871074804;0.1510416748629595;0.10707486572377967;0.16459603423373803;0.1905027822907348
B;4.6;0.022819614195729088;0.03535989257050964;0.10885062015911728;0.05543133445235071;0.12955647784827562;0.03166981143626568;-0.2330794364769444;-0.13850785164074075;0.16220089286899064;0.09162577593357746;-0.27747629083312386;-0.17734121826685767;0.15407315139437028;0.107468482794987;0.16388757915377106;0.19281272632568847
B;4.7;0.023600409364149755;0.0345994126633844;0.10863372757235545;0.054976675926138086;0.127962201627712;0.030671368446422598;-0.23627254452538615;-0.14180609458318383;0.1597978267300384;0.0911647408875158;-0.27345101616673606;-0.1726249768134931;0.15686869953846383;0.10788695962583894;0.1630836664202837;0.1950727347731398
B;4.8;0.02431234307278274;0.03362315445510333;0.10812987881161895;0.05454172773543764;0.12617865742145362;0.029607422195696564;-0.23912201393440125;-0.14483027700692253;0.15723273646399072;0.09068528500611439;-0.2686825346610746;-0.1674093352191437;0.15923172485140036;0.10831449659999315;0.16207333516801725;0.19725836383698336
B;4.9;0.024884813411649276;0.03239070861827109;0.10725706665381374;0.05414157812626197;0.12415814498502975;0.028453409678917296;-0.24159140986201155;-0.14753857241188584;0.1545041665528437;0.09019009984536641;-0.2630027155797201;-0.16156598061859562;0.16100098406040342;0.1087351287543008;0.1607753880404914;0.19934727482481396
B;5.0;0.025250210190133515;0.030867939204972217;0.10594038274645001;0.05379075125778243;0.12185855784999333;0.02718667060108171;-0.24364611327861496;-0.14989210497650562;0.15160523175179375;0.08968247612027902;-0.25625716104325313;-0.15497371380329694;0.162017399838998;0.10913464311117682;0.15911078573159632;0.20131856797498404
B;5.1;0.025435779673648184;0.02908923593010382;0.10423670350203906;0.05349091260848304;0.1193305951341106;0.025826032087461037;-0.24528550584944675;-0.1519030015212306;0.1485462494052463;0.08917111744538264;-0.24855142973804867;-0.14772093234808858;0.1623312952137379;0.10952790028854853;0.1571266784600116;0.20318229282202172
B;5.2;0.025499031173001896;0.027102106709742557;0.10223853126452198;0.05323938668939476;0.11664841679735183;0.024401707938237926;-0.24652035690118357;-0.15359860392638813;0.14535740903443273;0.08866553903222485;-0.24006095080346768;-0.13996017427306962;0.1620711737484175;0.10993667249487427;0.15491503151405794;0.20495761489867448
B;5.3;0.02547880663031421;0.024965856880053927;0.10002951891017808;0.05303566359761991;0.11388505164654994;0.022939824212268256;-0.24735491131641574;-0.15500049708974695;0.14202174620293562;0.08817781150663695;-0.2309442892878737;-0.13180468391100053;0.16128824867971137;0.11038459628456465;0.15253017748851505;0.20666093100012795
B;5.4;0.025426388415315415;0.02274993569858097;0.09771163079274103;0.05287744441748643;0.11112623925411569;0.02147211132183724;-0.24779880734130355;-0.15613790813988926;0.1385237537972639;0.08772053405645597;-0.22139610033926083;-0.12339594856307734;0.16006142804393608;0.11089892826692793;0.150042510954024;0.20831268806819914
B;5.5;0.02536945234882637;0.02046914907693509;0.09532796166037016;0.05276495217317834;0.10840591159326785;0.020013187866266158;-0.24785760992288086;-0.15702425209617843;0.13490965649375397;0.08729738095099826;-0.21149193609849704;-0.11481554267263627;0.1584762219260787;0.11148508959664571;0.14750599286879673;0.20991959646768255
B;5.6;0.02532377132500052;0.0181286177012554;0.09290343515171884;0.05269948953487358;0.10574498803824639;0.018571679554836074;-0.24753340007962876;-0.1576667748652465;0.13122346085419068;0.08691146639034297;-0.20127136225422237;-0.10611521718612726;0.15659134304226452;0.1121447843894181;0.14495865955999943;0.2114847780076472
B;5.7;0.025338594793621994;0.015756824833564664;0.09051123692629304;0.05267867062742493;0.10319783492113999;0.01717163399301036;-0.24684099204395782;-0.15809165737069542;0.12752305347631765;0.0865670460892769;-0.19087035410390474;-0.09742963487508938;0.15454794667838812;0.11288893051036109;0.1424865769005974;0.21302161271371123
B;5.8;0.02546088186472595;0.013378422775237375;0.08821940528709149;0.052699936132319714;0.10081388592426954;0.015835383058050212;-0.24579592397535954;-0.15832447029731433;0.12386904411938904;0.08626730734125054;-0.18041427690299194;-0.08888588104193884;0.15248599378845817;0.11372620614249218;0.1401723036476259;0.21454223124438432
B;5.9;0.02571109779557723;0.011043411216008714;0.08608496499639706;0.05276293656656161;0.0986491358208994;0.014578870979335079;-0.2443990042999351;-0.1583792339012806;0.1202257488787355;0.08602596747777991;-0.17001025387988822;-0.08054363131054787;0.15040014717945827;0.11467825737379655;0.13804319759811445;0.21606026496928443
B;6.0;0.026109477982799945;0.008817261116743857;0.08417529784598088;0.05286750488859315;0.09677195767956626;0.013420394198577767;-0.2426493518199404;-0.1582713359867216;0.11652950455051592;0.08586081578875593;-0.15978831388985526;-0.07246556131981352;0.1482585184837646;0.11577395241129995;0.1361220081341088;0.21759267436856344
B;6.1;0.026655322165128226;0.0067259783314206345;0.08251024745013424;0.05301436196839404;0.0952060226903253;0.012364226358846153;-0.240545977497006;-0.158005490777557;0.11275326402356445;0.08577952666625865;-0.14977922940169286;-0.06465398745053053;0.1460258728720394;0.11702097416073354;0.13440359632769372;0.2191431489330693
B;6.2;0.027344337712690958;0.004796636531496645;0.08110614671148753;0.0532041757188324;0.09397336836396697;0.011413064088928948;-0.23808713825446848;-0.15758518638153607;0.10886016167784973;0.08579042091083444;-0.14000744943216326;-0.05710030211554251;0.1436508020345615;0.11842756537152255;0.13287537139370365;0.22071522259738785
B;6.3;0.02821232917904304;0.003093454650001881;0.08004871648648226;0.05343621132622545;0.09315016277060906;0.01059187502389225;-0.23528185885987174;-0.15703627805538023;0.10482586629229296;0.08590744206599332;-0.13064193246045885;-0.04992040761117256;0.14117384226736274;0.12001999931157403;0.13159194025489995;0.22232736147765753
B;6.4;0.029295231469312455;0.0016712085117358555;0.07941883579305298;0.05370980627038957;0.0928045031743796;0.009924715990078603;-0.2321425489362854;-0.15638570848296718;0.10064766807096337;0.08614049874193519;-0.12184142342900639;-0.04323386877429636;0.13865931217068894;0.12181821849392716;0.13061108445257386;0.22399505688874388
B;6.5;0.030631025575257098;0.0006029383333894245;0.07930632419699002;0.054022374284529384;0.09301840750623569;0.009436546184880434;-0.22867897838761575;-0.15566064231679455;0.09627752517557209;0.08650681966512508;-0.11378496297498675;-0.03714962714594838;0.1361278010422673;0.12385466736778294;0.12998441645256698;0.22574085720099646
B;6.6;0.03225451289955039;-4.3189141270438824e-05;0.07979625067552298;0.054372034038810746;0.09386849944920606;0.00915105190930543;-0.22490186194776118;-0.15488777086330652;0.09167535420443151;0.08702150083790094;-0.10664300612140476;-0.03177459963359697;0.13360347580040877;0.12615816589180895;0.12976056436295824;0.22758496326046718
B;6.7;0.03414667463564669;-0.0002908571073332311;0.080859985467157;0.05476002462781704;0.09532380906737536;0.009058857036974288;-0.2208206016855021;-0.1540676373473695;0.08688385262803067;0.08767395610681294;-0.10034701514565114;-0.02706819646246794;0.13109504493876933;0.12870444557342164;0.12991255351728714;0.2295133038284014
B;6.8;0.03627325967195638;-0.0001897231447376413;0.08243315359291259;0.0551870203089333;0.09732087419543234;0.009139405803683331;-0.2164445441020515;-0.15319264688033796;0.08195889254237088;0.08844734720092617;-0.09475386938509978;-0.022935226664513753;0.12859520095733856;0.13145588691341636;0.13038783657899966;0.23150351500242472
B;6.9;0.038603063300120866;0.0002197267466144126;0.08447306812358413;0.05565855554363708;0.09981246104646324;0.009380301935784097;-0.21178429952593447;-0.15226091290385213;0.07697767853842308;0.08932360731021838;-0.08977079058791748;-0.019338513989217265;0.12612936532491759;0.13437526204401884;0.13115202553683325;0.23353233700972797
B;7.0;0.04109726648978196;0.0008837150959344342;0.08692061541325558;0.056180407544473177;0.10273540395844627;0.00976431405854683;-0.20685108978245648;-0.15126726103250832;0.07202915590184222;0.0902807116207418;-0.085271140942357;-0.016219886294765118;0.12372170760325041;0.1374175350684661;0.13215981266557542;0.23557161471490762
B;7.1;0.043741988802537435;0.0017804324084425005;0.08974116353961037;0.056748294583148784;0.10605562192996842;0.010277645352737785;-0.20165834129109594;-0.15021275099685072;0.06712493683607068;0.09131147507798332;-0.08117780310614187;-0.013509108649384594;0.12135537597470591;0.14056573447759124;0.13337858978843453;0.23761397827938158
B;7.2;0.04652981671291734;0.002900196789095588;0.09291502308554023;0.057357837340173745;0.10975328738398105;0.010910639223975949;-0.19622023018601542;-0.14910204562668827;0.06226493397031163;0.09241206080818998;-0.07744788467529062;-0.011157576413203696;0.11901376315439194;0.14381039452893507;0.1347855801166835;0.23965682234848007
B;7.3;0.049434159053006965;0.004199518207338215;0.096377936815351;0.058003863593746985;0.11376607791047633;0.011640675750524743;-0.19055103753573466;-0.14793032067011325;0.05747369200934305;0.09356914142786454;-0.07394077552595668;-0.009049626966037394;0.11667237154238297;0.1471216566832414;0.13632665095463903;0.2416848599262389
B;7.4;0.05243036866846751;0.00563670105029157;0.10006726411707945;0.05868049302740008;0.11803345478899985;0.012445207652748813;-0.18466588831162767;-0.14669344476677093;0.052770561663717075;0.09477031872554598;-0.07052103280172783;-0.007070395795329976;0.11430444565069653;0.15047195729833351;0.13794926819721365;0.2436845884930232
B;7.5;0.05549256396737512;0.007189699731616095;0.10396561078470867;0.059396173362661564;0.1225309901735514;0.013319202892043691;-0.17857827511298652;-0.14539626430050756;0.04822301352494218;0.0960007290553806;-0.06716320218010008;-0.005236245737552547;0.11194024204196129;0.15383418589116893;0.13963523377342657;0.24563815722139015
B;7.6;0.05858871688951339;0.00883385496616107;0.10805793795018381;0.06016366106162874;0.12723380722514932;0.014259977485736819;-0.17230117782770726;-0.144044104929693;0.04392098093281582;0.09724177523895872;-0.06384921406377142;-0.00358665019131843;0.10962743221004789;0.15717490998134043;0.14136797319551864;0.24752218379166369
B;7.7;0.06170934907140335;0.010564902317777403;0.11234745443862693;0.06098775830593084;0.13213831014304134;0.015266826123938593;-0.16585096114536046;-0.1426473948788698;0.03990217906000737;0.09848601531764434;-0.06060195665789525;-0.0021577950594768858;0.10739106873110327;0.16048338746016366;0.14314708228044903;0.24933092389409595
B;7.8;0.06484536577758249;0.012381199396375386;0.11684266458657966;0.06187461543832118;0.13724536510511953;0.016340924596261353;-0.15924424681831173;-0.1412177257573033;0.03620729947702106;0.09972609551514644;-0.05745891095746014;-0.001001193662215183;0.10526125275684795;0.16374998160807586;0.1449766734821738;0.25105889939461523
B;7.9;0.06795883190541119;0.014240891887891571;0.12149671122759997;0.06283005503245676;0.14250085824368597;0.017469313718866175;-0.15249577478710297;-0.13975508556668714;0.03291317877930933;0.10094049938448446;-0.05432572511083844;-8.095481458170184e-05;0.10326531435003439;0.1669327736640316;0.14681522008632086;0.2526792705898995
B;8.0;0.07101555661519221;0.016100629103152464;0.12625594659264117;0.06385550472949486;0.14784543182510035;0.018635906760575693;-0.14562165289941564;-0.13825878367774358;0.03008050540650231;0.10210933767447106;-0.05109062155878963;0.0006660613174447327;0.10141920239349389;0.1699922398445013;0.14861684127318764;0.25416826243363744
B;8.1;0.07397223847571333;0.01791736898852747;0.13107740370347365;0.06496159728014561;0.1532279937540153;0.01982990823004549;-0.1386361661954858;-0.1367287688259089;0.027802024566529582;0.10320919714388488;-0.04767810519707805;0.0012456057340650695;0.09975948810892277;0.1728848054685077;0.1503448016380622;0.25549625095619355
B;8.2;0.07678837938404293;0.019649070559491832;0.1359170340423841;0.06615660393401424;0.1585965583815181;0.021039932596962352;-0.13155444125126614;-0.1351653800673125;0.026161815507541597;0.10421765158582019;-0.04400823030992651;0.0016735971922510195;0.09832001034745019;0.1755684207912429;0.15196189257481052;0.2566353198764091
B;8.3;0.07948025417650229;0.02130144303158943;0.14077504385521955;0.06742897463718744;0.16394960342493192;0.022259564381065466;-0.1243996934400533;-0.13358158465754189;0.025123352023229906;0.10513873157449272;-0.04009562808185674;0.001975756495576242;0.09708807275710551;0.17805456120873675;0.15347194709149647;0.2575999427745215
B;8.4;0.08207960286614657;0.022895741676083325;0.14566957294093008;0.06876404947411352;0.16930562857226406;0.023485524372837574;-0.11719719088451708;-0.13199428230879562;0.024619728200899083;0.10598450507409574;-0.03600137488518396;0.0021592945174546685;0.09603964640470242;0.18037239378472059;0.15489636961838027;0.2584173693593321
B;8.5;0.08461310199707839;0.024441480509318936;0.15059517817413415;0.07014038887315177;0.17465771858860357;0.024709030256576447;-0.10997262276189357;-0.13041781209038916;0.024581530767753712;0.10676226199329708;-0.0317125274537462;0.002298754569193484;0.09515259651241337;0.1825367221898926;0.15623362385218797;0.259107143571355
B;8.6;0.08711533425726792;0.02595442633737033;0.1555518725761118;0.07153359158843475;0.18000531402402764;0.025921814227367612;-0.10275275759304048;-0.1288680478301667;0.02492168413620277;0.10748300862306781;-0.02722832930263852;0.0024711776117527506;0.09439785581614579;0.18456995418992506;0.15748775914385238;0.2596948248787543
B;8.7;0.08959707511590942;0.0274423091018976;0.16055058423445345;0.07294010669224793;0.18535950591363815;0.027121463049869732;-0.0955597406611206;-0.12735728609418961;0.025616803825332823;0.10815150905593285;-0.022614793890081586;0.0026414822477818234;0.09376612400487172;0.18648950410599507;0.15867780201491222;0.26019560578338474
B;8.8;0.09206091669427074;0.028906507967205286;0.16559564773881696;0.07435871807584427;0.19072398383330302;0.02830518879064492;-0.08841456353713184;-0.1258959646358826;0.026658286627095684;0.10876892509667613;-0.017924260466738673;0.00277383938337028;0.09325521970915229;0.18830525978031076;0.15981720051121417;0.2606185491932642
B;8.9;0.09453121228125028;0.030366132440769356;0.17071084078562926;0.07578273668357394;0.19612388427242244;0.02947219517262223;-0.08134032411395342;-0.12449896804640836;0.027997377267837464;0.10934650221991138;-0.013254099352437265;0.0028254544459795916;0.09284487599793234;0.1900489902580702;0.16093752148746798;0.2609896745126363
B;9.0;0.09703010680347113;0.03183946232261725;0.1759198078680555;0.07720675399337473;0.20158452883685918;0.03062212844472345;-0.07435963126780187;-0.12318059199499398;0.029588570958593685;0.1098950806156429;-0.00870523263817713;0.002746462896899615;0.09251593123565183;0.19175201745663895;0.16207119251973268;0.26133404124097925
B;9.1;0.09957090630598842;0.033324066674454755;0.1811983375259949;0.0786085510779122;0.20707795400996076;0.03174478235302569;-0.06749596131372115;-0.12195127832120578;0.03137608538309866;0.11041538715421861;-0.004215163307740077;0.0026390725928955305;0.0922597655439148;0.19341293921139346;0.1632005539717314;0.2616591227796379
B;9.2;0.10217059217062996;0.034815269327570064;0.18651176703696315;0.07995882962355427;0.21256409341104643;0.03282700594049359;-0.060773267012788956;-0.12082130965304305;0.03329040909046821;0.1109075180191379;0.0003216102171759161;0.0026554508828526835;0.09206612413672577;0.19502556997843357;0.16429598392795963;0.2619714617763673
B;9.3;0.1048267119220867;0.03630200923488047;0.19183121689863292;0.08124358523942998;0.21801163675974955;0.03385974178810969;-0.05421258224395764;-0.11979752352440176;0.03530409596751305;0.11136772771556824;0.004959861757572348;0.0028637768537418395;0.0919346878832652;0.19658117731937885;0.1653394338075458;0.2622701138672072
B;9.4;0.10753480237128343;0.037770820258075766;0.19712249879080268;0.08244744934915627;0.22338341440369192;0.03483323643082148;-0.04783424444605355;-0.11888577757228669;0.037389338029604424;0.11179108644873637;0.009771407813809141;0.0033464965034308847;0.09186671842252636;0.19806726500066585;0.16630764000512777;0.2625516673693662
B;9.5;0.11032277297115556;0.039228691043308395;0.20237418318555456;0.08354616999816677;0.22866414358589537;0.03573800362612278;-0.041660129234857735;-0.118097860675066;0.03947077811265043;0.11218439065777641;0.014791194201680291;0.004200404558705628;0.09184127925242258;0.19949676707312936;0.16719412780911735;0.2628348164248431
B;9.6;0.11321785596821243;0.04068516852844173;0.20758432975729058;0.08452089542798813;0.2338495318132381;0.03656669280879665;-0.03571090408136257;-0.1174453442311596;0.04148074267131818;0.11255596852172367;0.020017015521156978;0.005482874387875203;0.09183544095627383;0.20088891706149425;0.1680033706974573;0.26314092622706386
B;9.7;0.11624788389288554;0.04214624270037248;0.2127320567090507;0.08534152330651423;0.23891341909088837;0.037308963383339666;-0.030006913185189;-0.11693866560367461;0.04333108556213627;0.11291188661700957;0.025522033953573775;0.007331391010370947;0.09182968871144226;0.20225097323312102;0.16871837559131198;0.263485511862112
B;9.8;0.11943955663309858;0.04361778733402133;0.21779962133520137;0.0859808112610363;0.24383303711783988;0.03795511709933663;-0.02456693644897978;-0.11658743437539076;0.04493977773192803;0.11325841286440497;0.03136651861837336;0.009867569500481288;0.09180361166570794;0.2035920715109123;0.16932565579467163;0.26388458163617035
B;9.9;0.1227739864648072;0.04508941272234779;0.222782409302841;0.08644817530967952;0.24860711961479787;0.03850404569407395;-0.019404376004337642;-0.11639358062484684;0.04632544041079356;0.11359287915314109;0.037488361267972614;0.013012543612570315;0.091757138321368;0.20491618592282723;0.1698394874604272;0.26433746971109784
B;10.0;0.12621638717739359;0.046545101645066644;0.22767435354523968;0.08676153995800728;0.25323479092700474;0.03895733756139208;-0.014529855714048523;-0.1163556432166466;0.04753198611338583;0.1139091030429853;0.04380869657600073;0.016645732922300205;0.09169872126470668;0.20622156576425343;0.17027669454937389;0.2648354210316297
B;10.1;0.12974600967067218;0.04797409672390973;0.2324850095971307;0.08694168763974819;0.2577294428755863;0.03931554564619422;-0.009951971072930554;-0.116473499982098;0.048604090641732434;0.11420530856277633;0.05021153490879815;0.020625327059440313;0.09162374376354254;0.20752075078357102;0.17066600006994737;0.2653814276330806
B;10.2;0.1333358381375671;0.049363689170913716;0.23722629874448664;0.08701475935788316;0.2621081545448618;0.03958069554498689;-0.00567784882850475;-0.11674565260823755;0.04960040960488321;0.11447869655906828;0.05656261107353089;0.02478017750502426;0.09153019769750603;0.20882592937131417;0.1710405539006734;0.2659762597393289
B;10.3;0.13695981970472637;0.050703446369161576;0.24188045980969086;0.08698379596763317;0.2663541610540907;0.03975369345338997;-0.0017139150224299016;-0.11716924338278423;0.05052409940191982;0.11472499249197465;0.06285343662179699;0.029079957486525032;0.09142468458905384;0.21013015123331868;0.17139946417522367;0.2666099683969154
B;10.4;0.14059805916906498;0.051985373015451586;0.24642849407852374;0.08684727319608232;0.27044733001435617;0.03983460982282683;0.001935417143005047;-0.11774115837185217;0.05136564525404719;0.11494124667259076;0.06909463636436897;0.0335234585694657;0.09131034832162399;0.21142721244297746;0.17173725221493719;0.2672745719382359
B;10.5;0.14421315747452823;0.053194885889581656;0.2508531923084423;0.08661567787832247;0.2743752226414653;0.039826541312145025;0.0052636563888741605;-0.11845729256826099;0.052148995129981834;0.11512093319943428;0.07525438286475516;0.038037499130230135;0.09120071587035206;0.21270710013642535;0.17205881315964966;0.2679551310007895
B;10.6;0.1477678643956981;0.054318149500282686;0.25513613853066097;0.0862982008321369;0.27812327816667626;0.039732957858857;0.008266442957252984;-0.11931252024953887;0.05289444425897383;0.1152576523519695;0.08131029029970183;0.04255918747714871;0.09110949320848327;0.213958746017199;0.17236651973737338;0.26863582642289696
B;10.7;0.1512554738894476;0.055349781838510026;0.2592927999927621;0.08591213491888627;0.2817053010333197;0.03955361347726427;0.010946232543203038;-0.12030344540254623;0.053634697192113556;0.11535334442076906;0.08716440998880248;0.04698172930422917;0.0910207141036965;0.21520112545388592;0.17268558461867656;0.26932614324650483
B;10.8;0.15467526117562613;0.0562851843247687;0.2633503608776202;0.08548068935577291;0.28514786848635687;0.0392876167835734;0.013305379457784205;-0.12142795881714186;0.05441565190621844;0.11541182317959287;0.09267929104979356;0.05116148312826008;0.09091182481984905;0.2164623609982108;0.17305287898053923;0.2700426098778417
B;10.9;0.1580252989481643;0.057124028556301276;0.2673171355124051;0.0850111506534299;0.2884526490510524;0.03893530221304964;0.0153531372229736;-0.12267979585814759;0.05524207800260594;0.11543627731600647;0.09781002415533457;0.05505735656502875;0.09076610307752198;0.21775716614473328;0.17347960834930287;0.27079245975327115
B;11.0;0.16130735110479044;0.05786740327020823;0.2712050964375159;0.08451133967234803;0.2916239369154834;0.03849688837790932;0.017101061834675413;-0.12405231191544352;0.056119374821292034;0.11543093206651367;0.10250762888855736;0.05862776686372362;0.09056369363206329;0.21910305574837885;0.17397841436983175;0.27158533415656105
B;11.1;0.16450678058090595;0.05850588674647561;0.27503005881608367;0.08400472014210258;0.2946849569826817;0.03797362049849973;0.01854430661426676;-0.12554509315007456;0.057097586233647135;0.11539609347002777;0.10664275875899776;0.061717369332559;0.0902978487295707;0.22051649218730418;0.1745847845688404;0.2724278922213328
B;11.2;0.16760351937440632;0.059029486713678914;0.27879953177318484;0.08351114723369957;0.29765194616583557;0.037367869530205766;0.019677031810181767;-0.12715732359960885;0.05821834259309355;0.11533067591888901;0.11010989658423309;0.0641900323892064;0.0899688310340423;0.22200677563457027;0.1753278415573991;0.2733210694553314
B;11.3;0.17058884439647493;0.059430547826492486;0.2825403180653847;0.08305914714500151;0.30055650855560856;0.036680986116993;0.020501326819378107;-0.12888689442440038;0.05954502719708987;0.1152366957952804;0.1127590650278556;0.06587194466445911;0.0895629466626211;0.22359706911451216;0.17624857073032985;0.2742764922010741
B;11.4;0.17345337373425807;0.05970169091394162;0.2862758065432427;0.08267492904322005;0.30342849217521284;0.03591463976155218;0.021017347312521473;-0.13073263148032854;0.061135316885021496;0.11511593893678462;0.11445006254746382;0.06659886469496401;0.0890697589522329;0.22530774439362222;0.1773860083372032;0.2753041529011968
B;11.5;0.17618377006638752;0.05984622805381523;0.2899848122019364;0.08234673946016002;0.30623936563669396;0.035073674307307456;0.021239492944744143;-0.1326840652481298;0.06294628888823173;0.11496875857225142;0.11525633233178656;0.0664446568802628;0.08849328510325538;0.22712816643296652;0.17872003116322155;0.2763920181106272
B;11.6;0.1787689527580909;0.05987210961631284;0.2936380518697863;0.08205330625581375;0.3089452234389043;0.03416401956453985;0.021192400890884144;-0.1347260508944177;0.06491049358832601;0.11479597878378289;0.11531262698564149;0.06555404498081296;0.08783754519516851;0.22904123824383316;0.18021294392815967;0.27752355035834064
B;11.7;0.18119220275512227;0.059782122789151515;0.2971988473503071;0.0817733147934101;0.3115113606044062;0.033190761500705435;0.02087611816245971;-0.13685458622801683;0.06696134497537276;0.11459659546161216;0.1147233323186958;0.06403104175528895;0.08712073084511296;0.23102534510498973;0.18183937846221454;0.2786808984530875
B;11.8;0.18343638978514676;0.0595807551387173;0.300624571234021;0.08148023653056935;0.313895366759283;0.032159636594223606;0.020293236026205363;-0.13906422361531634;0.06901860127292991;0.11436942025988017;0.11362346310636529;0.06201322066520465;0.08636359774414792;0.23305425580118477;0.1835656722898351;0.2798429148124528
B;11.9;0.18549864118219794;0.05927599847874365;0.3039097385016163;0.08116789449884898;0.31607537322205914;0.03107653938535737;0.01947786780687011;-0.14133870752220767;0.07105888781250957;0.1141173271518543;0.11208484979274047;0.05957715877387448;0.08555940801052753;0.23512356783132748;0.18537057649887778;0.28100258753683427
B;12.0;0.18737860158770658;0.058874661837988285;0.3070555633580465;0.0808350706831753;0.31804007631902564;0.02994681371473984;0.01846020403222237;-0.14366484456769468;0.0730735868764496;0.11384364119854151;0.1101483356098818;0.05676546602331056;0.0847007306926848;0.23723276997893716;0.18724224755050134;0.2821567011732933
B;12.1;0.1890726436165977;0.05838834580552099;0.3100492268481716;0.08046811677030785;0.3197531879347917;0.028777756947564903;0.017284981715463665;-0.14602030180181869;0.0750175291961579;0.1135511481039595;0.10793862044070757;0.05371346577021452;0.08378160117147981;0.2393718407010601;0.18914410350009447;0.2832928479201451
B;12.2;0.1905792356673146;0.057829042018730625;0.3128809252408349;0.08005478474857952;0.32118143981740843;0.027576670680629967;0.015998219642558098;-0.1483830208556407;0.07685086944029429;0.11324300298590906;0.10557549872268002;0.05055151481737985;0.08279511027883846;0.241531805765149;0.19104099911528483;0.2843998996086272
B;12.3;0.19188891269912567;0.057196927300904754;0.3155222074986366;0.07957965789538246;0.3223158846459384;0.02634719110761541;0.014579340154900144;-0.15076242056841904;0.07852875406312965;0.11291888056709087;0.10310408287228778;0.04731792814343727;0.08176789945327556;0.24369399612480436;0.19292931296782;0.2854670237961301
B;12.4;0.1929874482322269;0.056489560983124854;0.3179345530449975;0.07902311683894059;0.32314765111326516;0.025092477952648018;0.012991288829018899;-0.15317437229759667;0.07999353089734029;0.11257699168841828;0.1005685673053689;0.04404634843242983;0.08073773174026666;0.24583429145234792;0.1948085948995546;0.2864803369835949
B;12.5;0.19387324441923326;0.05570720245522498;0.320106174826325;0.07837978430524117;0.32368428045157494;0.023815752619805508;0.011218419702948346;-0.15562963271343477;0.0812339264208779;0.11221851467839361;0.09797246386084613;0.04073053336997301;0.0797242061254817;0.24794172296474404;0.1966860640719803;0.2874363526497632
B;12.6;0.1945453879037231;0.05484895984563831;0.3220247387354789;0.07764448843409522;0.3239380583682383;0.022519712893061872;0.009237674904913007;-0.15814298723531506;0.0822406544152754;0.11184440103245752;0.09530854304632097;0.0373516409948591;0.07875083179372844;0.25000460580037753;0.19857344799587917;0.2883323728582363
B;12.7;0.19498875474857513;0.053918453506500263;0.3236559424172061;0.0767966003828775;0.32388160897242635;0.021210240879286246;0.007047551313867473;-0.1607109203848176;0.0829462194460584;0.11145350440329871;0.09267618147571532;0.03400560171694611;0.07784248034325447;0.2520007953771737;0.20044990687848774;0.2891498132633963
B;12.8;0.1951904978070953;0.05292202960000303;0.32497289626756576;0.07581838303446986;0.32348425370643774;0.019894224253673265;0.004664304616422754;-0.1633217657892505;0.08329049423598534;0.11104554131262567;0.09018580312073698;0.03080198640081644;0.07701503291733047;0.25391170254150364;0.20228867245783722;0.28987065518099087
B;12.9;0.19513817662300603;0.05186083605298819;0.3259352464295908;0.0746857069982747;0.3227272325226629;0.018575873515212393;0.0020644840971471012;-0.16598376496145084;0.08320097128161041;0.11061869559291004;0.08792458140881809;0.027822769203467157;0.07630621168817164;0.2557104822516738;0.20407709362418203;0.2904772755470235
B;13.0;0.19481945022390512;0.0507368943719273;0.32650685799475987;0.07337680374171729;0.32159056804432673;0.01725992081334571;-0.0007662205027818558;-0.16870036639596364;0.08260997449465801;0.11017132487569992;0.085981551564557;0.025151750561906105;0.07574950274721637;0.2573726183674383;0.2058005563525338;0.29095208109344384
B;13.1;0.19424827746645867;0.049558548768890986;0.32671329915801905;0.07190367451033985;0.32008829858484766;0.015951843099950125;-0.0037875760281300686;-0.17146037714688767;0.0815592630072155;0.10970841405552001;0.08435655585823465;0.022784227377485866;0.0753331193570057;0.2589040014873447;0.20745877918057687;0.2913002113072727
B;13.2;0.1934504317606205;0.04833450601924749;0.326596995049103;0.07028718429757763;0.31825271795097443;0.014655941553685103;-0.006957276999528084;-0.1742567356513125;0.08012464690398335;0.10923688087248529;0.08300936383471047;0.020675103126367222;0.07503891364869908;0.26031767042475273;0.20906263667966307;0.2915358490954203
B;13.3;0.19243531602918296;0.04707656574241259;0.32619826241338856;0.06854856330375902;0.316086293536852;0.013380461365313678;-0.010193325355133176;-0.177054470794892;0.07836157103396335;0.10876202812580882;0.08195428270506344;0.018833663280732438;0.0748352951697342;0.2616294344222787;0.2106004054268551;0.29166197601080945
B;13.4;0.19121644113006298;0.04579755009365538;0.3255665084430639;0.06671383918704077;0.31359655416889254;0.012133705484942858;-0.013405754561888195;-0.1798164821333459;0.07634123970866025;0.10829006261129948;0.08119368645026537;0.017257586603857344;0.07468423783484024;0.26285942115866323;0.21206216997904193;0.29168484345269086
B;13.5;0.1898231349818218;0.04450148363759787;0.3247248557531339;0.06479161162766989;0.31082418298695913;0.010916385785488814;-0.01659641144221702;-0.1825572740840271;0.07411139761414098;0.10782592167550131;0.08068759619374699;0.0159020432023933;0.07459637876026814;0.26400821584726053;0.2134689636500431;0.29161749518125735
B;13.6;0.18828104919726663;0.04319114302106808;0.3236890165514197;0.0627866413648297;0.30780540097670617;0.009728917196300202;-0.019773181949575225;-0.18529181065864853;0.07170502839413917;0.1073733201833269;0.08040708595375712;0.014732569554556818;0.07458916300501262;0.26507303990608566;0.21484045020742482;0.2914696737612035
B;13.7;0.1866281473406204;0.0418720718402934;0.32249545275471725;0.06071408129434808;0.30459346170206736;0.008571601814632679;-0.02293410383458383;-0.18803764002578793;0.0691973965699777;0.10693898225290877;0.0802858901593071;0.013679379061301233;0.07466435406114247;0.26605991339789714;0.2162031346001445;0.2912613594771045
B;13.8;0.18490391573491038;0.04054898802186013;0.32117948843129085;0.05858822277016351;0.30124428292494443;0.007443983133664567;-0.02608304858177224;-0.1908151789829997;0.06666215276033594;0.10652935850576473;0.08025435428233862;0.012669204417715019;0.0748276576108724;0.26697393503900635;0.21758607808004982;0.29101305336986094
B;13.9;0.1831048265374804;0.03923226085156983;0.3197734239783401;0.05642765448018494;0.2977423175531122;0.00635505811604542;-0.029126123556368455;-0.19357436205915102;0.06412759958572067;0.10614643557769021;0.08035980614797644;0.011741708428271824;0.07505157053164613;0.26782994989527076;0.2189676127440583;0.29071801190447477
B;14.0;0.18121581529653952;0.037935403154975234;0.3183135794655172;0.054254737520746055;0.2940521893386183;0.005317196287847992;-0.03193456175248954;-0.1962430890466651;0.061618445996291626;0.10579166838140086;0.08068017187461152;0.010966980034522233;0.07529172253790417;0.2686479761467284;0.2203097022037337;0.29036310991475744
B;14.1;0.17923823167926756;0.03666450234471075;0.3168201554402046;0.052080216171772165;0.29016700423402675;0.004335972332432547;-0.03444723784206172;-0.19878675863317907;0.05914431143479515;0.10546550749462202;0.0812567406224769;0.010378372211072406;0.0755433837404027;0.26943508850358633;0.22160110604060979;0.28994201626339944
B;14.2;0.17716894541165473;0.03542581560943958;0.315312628665092;0.04991506687078573;0.28607279491274085;0.0034175833774012787;-0.03659457349597606;-0.20116386350321092;0.05670887558379256;0.10516766776186603;0.08214190324745996;0.010020062457498646;0.07579941939204282;0.27019940961417177;0.22282595309426867;0.2894455484576275
B;14.3;0.17501133295928462;0.03423304572493713;0.3138323389360238;0.047781128358013625;0.2817644314701333;0.0025712299387219417;-0.038284660062664955;-0.2033326896603671;0.05436538707617711;0.10490237818178016;0.08336435781583429;0.009917810613408129;0.07601881607943195;0.2709583159306659;0.2239630772676824;0.28887371997882294
B;14.4;0.17277960285924898;0.033098236077546694;0.31241875683376286;0.04569733024131395;0.27725445738270516;0.0018033705034543601;-0.03945452665978699;-0.20527120789498232;0.05217390928568566;0.10467469378738414;0.08492666442723884;0.010072955703573694;0.07617125475036612;0.2717251657297117;0.22500377999500465;0.28823297115698665
B;14.5;0.17046549294155433;0.032035784350680885;0.31111693629778436;0.0436898442205127;0.27251988233720503;0.0011250864250715864;-0.039982194123342474;-0.2069156285643512;0.050180811887212684;0.1044872263150145;0.08687899445441172;0.01053156719517423;0.07620416273595243;0.2725239098682435;0.22591534220387377;0.28751697624096817
B;14.6;0.16806452454230048;0.031059685789677438;0.30996923273906773;0.04178229820549895;0.26754409412230373;0.0005463474219435938;-0.039760200520302824;-0.2082119400940181;0.04843287370524596;0.10434291058552247;0.08926351573958868;0.011333514675044842;0.07606894580472545;0.27337582971037033;0.2266689175680563;0.28672178623325006
B;14.7;0.16561424973003191;0.030166907629263662;0.30897990214362814;0.03997008253397638;0.26238021933683875;6.105227325825524e-05;-0.03884315127144955;-0.20919748598125887;0.04694291237657833;0.10424299048744068;0.09203628582124779;0.012432683998911287;0.07581203934612013;0.27427020159807913;0.22729982201129229;0.28586079011168497
B;14.8;0.16315839279129385;0.02934869200675383;0.30814296714440914;0.03824228547758057;0.25709301457543354;-0.00034120316032737463;-0.03732006732201487;-0.20992509425865524;0.04570732447981385;0.10418692703714783;0.09513703274803476;0.013765445981141156;0.07550507079984481;0.2751903438833887;0.22785820093467457;0.28494888155539666
B;14.9;0.16074988331072326;0.028601784042417755;0.3074511284515946;0.036583285652185715;0.2517610495901703;-0.000670043664494635;-0.035303765417380006;-0.21047353232938315;0.04474298704120372;0.10417813822716582;0.09849277174124982;0.015264391046490022;0.07520790156147061;0.27611332442090664;0.22839298919052897;0.2840092936381131
B;15.0;0.158447613850079;0.02792041921883115;0.3068916432936124;0.03497344995462637;0.24647304154798988;-0.0009375466384700104;-0.03293101308496471;-0.2109349591760501;0.04406208036325676;0.10421972350933473;0.1020171737551463;0.01684903248048064;0.07499351768074192;0.2770117758487274;0.22896232643010705;0.28306793983501954
B;15.1;0.15626969856320017;0.02729882506335901;0.3064718691521513;0.03341446513267332;0.2412560114276605;-0.0011492834070727653;-0.030219888164112696;-0.21131383974367157;0.04365852898961364;0.10430870011387405;0.10568695335806311;0.01849186829996441;0.0748981833732385;0.2778868386659967;0.22959026556482875;0.28212812161866996
B;15.2;0.15422641700929063;0.026733910696996155;0.30620254780275147;0.031910761429179146;0.23612542141349913;-0.0013086411427849498;-0.027168590822229;-0.21160352877821653;0.04352871598913399;0.10444219337655891;0.10949215395172551;0.020180818520359356;0.07494214325613946;0.2787439629008608;0.23028994518334844;0.2811904625794597
B;15.3;0.15234495085428357;0.026214794046227397;0.3060841415612252;0.03045961861957025;0.23112279396872992;-0.0014250973295775182;-0.023826061633006823;-0.21182313903624417;0.04365738402265329;0.10461603716770895;0.1133904941253796;0.021866061740748233;0.075185833802629;0.2795782937795295;0.23110095611191994;0.28026118231067887
B;15.4;0.15064823686661377;0.025730677680342318;0.3061175037174202;0.02905926858545005;0.22628416973474508;-0.001507780224416777;-0.020234574527878024;-0.2119864962322402;0.04402681338756853;0.10482551764679826;0.11734397989624057;0.023502738211726104;0.07568512498212598;0.28038720902624625;0.2320594568727401;0.279344829952775
B;15.5;0.1491764313871844;0.025285175224952106;0.3062934607478329;0.027692421337398798;0.22167207970599634;-0.0015630136082664947;-0.016496653869041644;-0.2121718179876848;0.044658533189823935;0.10507541827508682;0.12129844620901853;0.02505399413865783;0.07646526262379805;0.28115004367013174;0.2331926221125924;0.27846340497989885
B;15.6;0.1479818405727098;0.024884326621882558;0.3065976791073073;0.02633531081107865;0.2173668147218848;-0.0015979045080118937;-0.012748197025351793;-0.21248540054264842;0.045585667474131064;0.10537341415792945;0.12518425064265326;0.026472301871878656;0.07755443691375241;0.28183685752072396;0.2345333230654525;0.277646700622741
B;15.7;0.14708278829179022;0.024533586698208154;0.30702822861671386;0.024978672647526956;0.21340076671077668;-0.0016155261361143758;-0.009043223922200916;-0.2129714261637372;0.04682387696704282;0.10572217911533954;0.12897356666634874;0.02774902906188137;0.0789502707669314;0.28244075914072564;0.23608884261764107;0.2769076017229972
B;15.8;0.14649690154972816;0.024240108821893536;0.3075814819322389;0.023611593152968346;0.20980618523119432;-0.001618452210134791;-0.005440327275584522;-0.2136792870049491;0.04839134422242264;0.10612514691314967;0.13263910707809412;0.028879276366708062;0.08064407072709923;0.2829535646641306;0.2378632340025435;0.2762600655789553
B;15.9;0.1462789363164987;0.024001295371406606;0.3082465878480729;0.02221633011126123;0.20666509456446214;-0.0016168627904766808;-0.0020654149300129987;-0.21469631278342804;0.05030757174788292;0.10658601585927929;0.13610356381101596;0.02979172639384675;0.0826920316888975;0.2833482421048048;0.23990402805313682;0.27573012303027955
B;16.0;0.1464768430167993;0.023811231742432604;0.3090170505195804;0.020780779766599977;0.20404932525684671;-0.001621160249203335;0.000978164652136293;-0.21608866549350747;0.05258337639277677;0.10710592016977127;0.1392958398026254;0.030414906667023622;0.08515365729979951;0.2836043818902052;0.2422585480117725;0.27533862107766627
B;16.1;0.14714628531244678;0.02367099396495842;0.30987229493931423;0.019278958219154596;0.2020457117341934;-0.0016412800403644567;0.0035358661831104143;-0.2179676668992374;0.055240670243235535;0.10769063084921626;0.142135215268417;0.030683620462174765;0.08807494832720675;0.2836874272095926;0.24496946803156305;0.27511572810674334
B;16.2;0.14834032947940834;0.023580242478201008;0.31079514908082473;0.017688548822825112;0.200736655068253;-0.0016869973570505792;0.005466556810034717;-0.22043312356054434;0.05829966745235282;0.10834483715012144;0.14454371878345462;0.030530883307065437;0.0915029743206528;0.2835659819891214;0.24807928147431646;0.2750893727303261
B;16.3;0.15003510765593475;0.02353615842186141;0.31180093544296206;0.016023389056683435;0.20009519531565978;-0.0017591275101658255;0.0068243316551726;-0.22343666634442272;0.06174249430682721;0.10906146586352072;0.1465359257692267;0.02997378245613591;0.09541809398275891;0.2832647176750891;0.2515751706787501;0.27524843041836977
B;16.4;0.1521798448092362;0.0235378868197893;0.3129085705585979;0.014303434429535855;0.20005893527937424;-0.0018550821574487841;0.007710253566249214;-0.22689597052179833;0.06553856209843989;0.1098308217004913;0.1481576158624014;0.029065139359047976;0.0997694401216469;0.28282221391156703;0.25542071335451855;0.27557080013543445
