Condicao;Tempo_s;Ch1_HbO;Ch1_HbR;Ch2_HbO;Ch2_HbR;Ch3_HbO;Ch3_HbR;Ch4_HbO;Ch4_HbR;Ch5_HbO;Ch5_HbR;Ch6_HbO;Ch6_HbR;Ch7_HbO;Ch7_HbR;Ch8_HbO;Ch8_HbR
D_2min;-20.0;-0.9299953205488602;0.151123867531072;-1.0882853349707275;0.0675908547012547;-0.6734623071709169;-0.07411928642707633;-1.234241589895884;-0.05874514716019874;-0.5420664567321793;-0.13954305170141978;-1.0198439451723953;-0.07568942255266453;-0.7240076166013729;-0.023550513640699045;-0.940886301297418;0.036811780127261606
D_2min;-19.9;-0.936481983413465;0.15429594292887394;-1.0936955865944658;0.07240914329228154;-0.6811607371497175;-0.07270975606968655;-1.240480322680754;-0.05334482553972908;-0.5470981602349099;-0.13909055711716256;-1.020304257870487;-0.07050743511870827;-0.7368871625806044;-0.018564894651618147;-0.9481433510504047;0.04091669549402788
D_2min;-19.8;-0.9420715846825765;0.1573086144119502;-1.0983140905452249;0.07726570338209182;-0.6881245758376284;-0.07120710742504777;-1.245880900211234;-0.04774428617202009;-0.5518042039392785;-0.13853960433345236;-1.0202653137407776;-0.06520796323580758;-0.7489378318674689;-0.013620574690227372;-0.9546733524699942;0.044945991414523156
D_2min;-19.7;-0.9465516768680775;0.16018491400953394;-1.1020370981889052;0.08218847719014999;-0.6941316565359372;-0.06958001964058802;-1.2503558338482872;-0.04194542282217384;-0.5560438526702463;-0.13786902174230775;-1.019656296214352;-0.05982020654262499;-0.7598559087321775;-0.008710445752469376;-0.9602627686392218;0.048917827549209925
D_2min;-19.6;-0.9498046834222222;0.1629397643244932;-1.104779557520466;0.08719758453698034;-0.6990804924417837;-0.06781590770598811;-1.2538395629036287;-0.03594831849080471;-0.5597546195627707;-0.13707170734724183;-1.0183884500218756;-0.05433332210408626;-0.7694941096560903;-0.003825738241686416;-0.9647694853157667;0.05285663808931318
D_2min;-19.5;-0.9516847361804892;0.16559707080488018;-1.1064306448150205;0.09232654912141758;-0.7028493317078439;-0.06589722106808615;-1.2562457525399404;-0.029745481466250112;-0.5628628276566854;-0.1361378937762021;-1.0163380004346063;-0.048723011936758986;-0.7776818499747069;0.0010530411539999562;-0.9680142020994573;0.05680083720212714
D_2min;-19.4;-0.952111691764598;0.1681420420098334;-1.1070138974836699;0.09754247928590232;-0.7053063936023438;-0.06381411118006408;-1.2575889043933728;-0.02337486810112921;-0.5652699348305728;-0.13505605285432853;-1.0136041459331846;-0.04308720150384637;-0.7842159265872457;0.005886003208564361;-0.969956346378094;0.06070515678396138
D_2min;-19.3;-0.9510727395571745;0.1705444450307878;-1.1066010773067934;0.10278886996535874;-0.7063781339504338;-0.06156840403593833;-1.2579230076219634;-0.016886339863404487;-0.5669089030098196;-0.1338207286233315;-1.010339872318708;-0.037537768593118415;-0.7889641546983075;0.010616323487592894;-0.9706329153670463;0.06450285593714788
D_2min;-19.2;-0.9484322737973852;0.17280794516075204;-1.1051783931976829;0.10805620921015802;-0.7058807779739862;-0.0591386369327056;-1.2572335281272915;-0.010310275587180229;-0.5676535891735881;-0.13241509574158794;-1.006597285141222;-0.03215971143697516;-0.7916671702636027;0.015223661255562959;-0.9699379017492493;0.06817040792765372
D_2min;-19.1;-0.944076468757693;0.17493105669738895;-1.1027447271083677;0.11332823521155344;-0.7036528387542429;-0.056507453619609294;-1.2555152336692865;-0.0036780404525602606;-0.5673883134136464;-0.13082370923002085;-1.0024414904273407;-0.027039702667068788;-0.792091293891632;0.01968257905802151;-0.9677895367816305;0.07167858216243861
D_2min;-19.0;-0.9381047019418816;0.17689100089911847;-1.0993346202145613;0.11856831714207594;-0.6998072931124586;-0.05370047361239383;-1.2528030035422857;0.0029870408498773315;-0.5661713177227004;-0.1290604801592643;-0.9978824611870198;-0.02216466511981352;-0.7903621637976119;0.02396661289407742;-0.9642703170878146;0.07501004096177866
D_2min;-18.9;-0.9306550318657045;0.17867034111835878;-1.0949721083938844;0.12374837109143844;-0.6945180793993089;-0.05075045365939079;-1.2491287431602007;0.00966805789679892;-0.5641049226657806;-0.12714678276348668;-0.9928825099519027;-0.017479300285242694;-0.7866951893921286;0.028062552523794082;-0.9594782634567789;0.0781658180378475
D_2min;-18.8;-0.9219083779530095;0.1802211536895797;-1.0897422197985627;0.12880141440106474;-0.6879821024659698;-0.04769976501800599;-1.244562435668911;0.016338998862486243;-0.5612845543186413;-0.12510127334736065;-0.9875134983009684;-0.012984813703136311;-0.7813045930073308;0.031918362246655896;-0.9535916212820492;0.08110068818401661
D_2min;-18.7;-0.9120793823575344;0.18149243565650242;-1.0837383215369467;0.1336568566111076;-0.6804373582440402;-0.04459710414339568;-1.239182320269415;0.02297446168669115;-0.5578310704212477;-0.12294677438470014;-0.9818422707776513;-0.008669033382023628;-0.7744589599956697;0.035481665780072724;-0.9468159870734052;0.08377041989581269
D_2min;-18.6;-0.901213905579116;0.18249573154078647;-1.0769497859956623;0.1383178399563949;-0.671949722363788;-0.04145305208880501;-1.2329941122818404;0.029558589900615218;-0.5537889397458056;-0.12069521942071493;-0.9758051114432487;-0.004487286548831904;-0.7662561189868118;0.03876584709135056;-0.9391586629587287;0.0861977377252039
D_2min;-18.5;-0.8893277642816511;0.18324663371861316;-1.0693611834529637;0.14279203542020813;-0.6625478277490977;-0.038271706205655676;-1.2259970493059473;0.03607655850692382;-0.5491777060178773;-0.11835381585437688;-0.9693478106172648;-0.0004096082984172966;-0.7567449746873915;0.04178607064014095;-0.9306048052595308;0.08840465374537398
D_2min;-18.4;-0.8765116310218293;0.1837568848235902;-1.0609641317366805;0.14708293837143938;-0.6523553751456639;-0.035071817755003565;-1.218203397486774;0.04251428670154933;-0.5440815163404196;-0.1159412873365655;-0.9623754739750847;0.0036413789186973133;-0.7461054965390481;0.044561178542515734;-0.9211880580820804;0.09042364479318721
D_2min;-18.3;-0.862846914198867;0.18404314850153902;-1.0517459919394962;0.1511995897605276;-0.6414861245907648;-0.03186935928800416;-1.2096223984944352;0.04885875763229919;-0.5385799000613094;-0.11347551517600785;-0.9547887270083386;0.007743504048133509;-0.7345090919756814;0.047115405136191946;-0.9109322320533639;0.09229159425877409
D_2min;-18.2;-0.8484856746321441;0.18405442587039023;-1.041806508025191;0.15507179198281307;-0.6300949135606224;-0.02869967335509571;-1.200324442746168;0.05508989597827885;-0.5327268672678649;-0.11096494635624943;-0.9467149117874527;0.011853253418495413;-0.7221007342050587;0.04938895986228253;-0.9000135696234306;0.0939482299399037
D_2min;-18.1;-0.8336259106307402;0.18371508497658162;-1.031285784174493;0.1586002217524447;-0.618376737226777;-0.0256090812921137;-1.1904050170397005;0.06118455756667185;-0.5265858311290952;-0.10841812905226078;-0.9383435310599051;0.015901113372950526;-0.7090525373975538;0.051293594367532336;-0.88867283806246;0.09530310322602986
D_2min;-18.0;-0.8183574865369536;0.18299709870151393;-1.0202610375687495;0.16173990360212454;-0.6064146951226981;-0.022616855201555097;-1.1799183370423858;0.06712391236661919;-0.520174995000934;-0.10583804530539798;-0.929789443516416;0.019834468767364832;-0.6954358654309694;0.052792209794266576;-0.8770268912845118;0.09631290873854592
D_2min;-17.9;-0.8027742958727391;0.18186731410615842;-1.0088205618514987;0.16443996909739234;-0.5942924022143519;-0.019743054258644754;-1.1689241219989253;0.07288967192119866;-0.513507881807655;-0.1032261326346875;-0.9211912867718137;0.023587341889192537;-0.6813157008175281;0.053841303431361176;-0.8652053774055304;0.0969258625690621
D_2min;-17.8;-0.7870792935127913;0.18027229464545869;-0.9970721121949442;0.16662521514537065;-0.5822196903779808;-0.01703223994659897;-1.157506251475441;0.07845843911030492;-0.5066780021662183;-0.10059816611831707;-0.9126383088472814;0.02715308975376285;-0.6669160263803935;0.05438204429792304;-0.8534114245954427;0.09708918696375957
D_2min;-17.7;-0.7714535980908259;0.17817733800721403;-0.9850984044422209;0.1682411700214459;-0.5703869536306492;-0.0145223263353218;-1.145736096455055;0.08380693811681539;-0.49978021665105565;-0.09797157711647575;-0.9041684179947094;0.03055081143774263;-0.6524579617917841;0.05437764745625806;-0.8418080034286213;0.09677388508936602
D_2min;-17.6;-0.7561243164768285;0.17551295604693973;-0.9730355135264652;0.169196159067031;-0.5590272157764566;-0.012263386243636099;-1.1337106903583445;0.08891709304632744;-0.4929086728822156;-0.0953598126984998;-0.8959278634468433;0.03374682743266266;-0.6381741268217738;0.053752213171478935;-0.8306416878570602;0.0959063081722018
D_2min;-17.5;-0.7413088013710603;0.17221727745574178;-0.9610111283852429;0.16940619889490538;-0.5483613059546233;-0.010302343088126165;-1.1215239043085763;0.09376950642386639;-0.4861561904787859;-0.09277685385701773;-0.8880422059485209;0.036717175190176476;-0.6242909757603794;0.05243828896687486;-0.8201411148647324;0.09442200171307213
D_2min;-17.4;-0.7269796092027079;0.1683393423773758;-0.9490110771751148;0.1689117762550456;-0.5383533035179173;-0.008624135816274858;-1.109180473870138;0.09834849612277718;-0.47951569498115276;-0.09022597644464803;-0.8804663175807725;0.03947696677470436;-0.6108101943095328;0.05048656938842644;-0.8102539507841637;0.09236441918313965
D_2min;-17.3;-0.7130379935904134;0.16395585847762106;-0.9369887580655316;0.16778629733482564;-0.5288932463146452;-0.007195717863281104;-1.0966604650319018;0.10264485343900365;-0.4729452504115699;-0.08770489840321982;-0.8731343401966569;0.04203616350262962;-0.5976592666041345;0.04797769875350344;-0.8008574428120863;0.0898008995674564
D_2min;-17.2;-0.6994220060751974;0.15914273558996772;-0.9248950679422503;0.1660959193577991;-0.5199000710558863;-0.005991780207548203;-1.0839568924246672;0.10663323861987539;-0.46643540286834373;-0.08522032800662682;-0.8659093294250404;0.04445414081192478;-0.5848184520700741;0.04499111959305324;-0.7918278535737766;0.08680957112517351
D_2min;-17.1;-0.6860354364184644;0.1539922934339959;-0.912660886785897;0.16392539692817287;-0.5112566563363679;-0.004977994755807735;-1.0710503854158917;0.11028942009322407;-0.45996323264878036;-0.08277751905817698;-0.858628898095871;0.04679689393152753;-0.5722375188044015;0.041624002891353484;-0.783001538511753;0.08348472616553959
D_2min;-17.0;-0.6728505847238289;0.1485419683169713;-0.9002968431503184;0.16130928362462527;-0.5029307760836161;-0.004138697076244036;-1.057947404778223;0.11361856626563593;-0.4535072993707221;-0.08037238656740975;-0.8513286541469807;0.04903465235037796;-0.5598947349374885;0.037918309141309336;-0.7743558812530011;0.07985207430065167
D_2min;-16.9;-0.6598734340524963;0.14281368990476917;-0.887834461050824;0.158264723047707;-0.49492278928241085;-0.003466471704526519;-1.0446677425928206;0.11662601532295369;-0.4470595891571634;-0.07800218621702903;-0.8440651308865892;0.051133694477138114;-0.5477951311726805;0.033899920002571804;-0.7659037819866441;0.07592333012976837
D_2min;-16.8;-0.647018795547293;0.13687025103018247;-0.8752540823273893;0.1548563081836356;-0.4871433287539926;-0.002930733424841847;-1.0311971048232174;0.11932063121644632;-0.4405729114453507;-0.07565923925090168;-0.8368500218062049;0.0530647458966369;-0.5358666091751392;0.029637385665566285;-0.7575672295905971;0.07174545514363384
D_2min;-16.7;-0.6342056224481194;0.13077087007080568;-0.8625415978031068;0.15114576536865965;-0.47950726124175347;-0.0025018517409645114;-1.0175228275156316;0.1217146163577345;-0.4340002985737428;-0.07333509445950437;-0.8297061695607226;0.054793452872249127;-0.5240366286579015;0.025196293278723303;-0.7492750613083334;0.06736197417713718
D_2min;-16.6;-0.621432766674948;0.12456888248282993;-0.8496798374418866;0.14717128781504485;-0.47198102225209304;-0.002168072225734008;-1.0036654073094189;0.12377718212704103;-0.4273618784979458;-0.0710415564120499;-0.8224902219315382;0.05639707306696895;-0.5123311365058321;0.020632818175652545;-0.7409448419311211;0.06283712341958303
D_2min;-16.5;-0.608701553855866;0.11832734644417009;-0.8366358838615504;0.1429767855984485;-0.4645259067539076;-0.0019173716522038475;-0.9896472190651364;0.12546319141375317;-0.42069002207106365;-0.06879609626861694;-0.8149918485629968;0.05799122430120285;-0.500792585707746;0.016011488069344715;-0.7324691522971563;0.058250908743151975
D_2min;-16.4;-0.5960521220638331;0.11207266223729917;-0.8234292398503644;0.1385753452108256;-0.4571540549139623;-0.001748663671278905;-0.975502448440352;0.1267565375227715;-0.4140156976448477;-0.06660806761522586;-0.807136026561448;0.05962528519254651;-0.4894679068252312;0.01136382562646343;-0.723823367729155;0.053641684089971164
D_2min;-16.3;-0.5835342053151322;0.10582885172332013;-0.8100807639234286;0.13397628018265184;-0.4498837011843353;-0.0016631231526416101;-0.9612693192045887;0.1276379092997706;-0.4073768123246211;-0.06448870988061817;-0.7988322579395;0.061359521068797385;-0.4784126782206819;0.006718686008082564;-0.7149830111396387;0.049048625999233764
D_2min;-16.2;-0.5710945420268949;0.09967456065940006;-0.796540984678181;0.12924901328585037;-0.44263771867130686;-0.0016353696692936737;-0.9469475655030175;0.12807833044689598;-0.40077123040387086;-0.06244708755509443;-0.789920817195723;0.06326964712601768;-0.4676246600895322;0.0021562142423938724;-0.705829767696537;0.04455208933186938
D_2min;-16.1;-0.5586685858026641;0.09368589592989274;-0.7827659770549182;0.12446544716121188;-0.435336757971136;-0.0016376397717019486;-0.9325308083174724;0.12806178751539488;-0.3941842141706964;-0.060487317271697094;-0.7802911172278097;0.06540190039360905;-0.4570863481170022;-0.0022447933488605187;-0.6962594614643081;0.04022360329676733
D_2min;-16.0;-0.5462065191893952;0.08794367409900161;-0.7686971580187478;0.11969384738255062;-0.42789431253565446;-0.0016454742218714458;-0.918022500094029;0.12754881866769185;-0.38762211747518727;-0.05862283954669145;-0.7697228552336082;0.06786577973087571;-0.4467939394362883;-0.006403042249260693;-0.6861261664419889;0.03615434932213191
D_2min;-15.9;-0.5336578194788402;0.08252601111916213;-0.7542790996481727;0.11500225027115984;-0.42022929825390065;-0.0016345336654692844;-0.9034242311743368;0.12650524372041794;-0.3810879861401375;-0.05686534247347197;-0.7580193349164688;0.07075784499460269;-0.4367447009362557;-0.010240140666806674;-0.6752974138002479;0.03242923014723331
D_2min;-15.8;-0.5210602596171086;0.07742777823836722;-0.7395766287920544;0.11039008537365635;-0.41238220889420596;-0.0016053368028936532;-0.8887613717729437;0.12496809111204588;-0.37458253665853647;-0.05520696693884908;-0.7453063692470092;0.0740170574079313;-0.42695057919045887;-0.013750579407030727;-0.6638349417127056;0.02903829097227284
D_2min;-15.7;-0.508483647258446;0.07261596811237059;-0.7246900850933393;0.10583129192705787;-0.40442688662275295;-0.0015676598805471897;-0.8740702190396048;0.12299124641065351;-0.36811042185279597;-0.05363604651038223;-0.7317783749316256;0.07755107454693011;-0.41742341787967696;-0.016953967717422636;-0.651845952230806;0.025946090474371353
D_2min;-15.6;-0.4959630256401084;0.06807783839046788;-0.7096947674471874;0.10132675260278123;-0.39642978914693394;-0.001522265760423025;-0.8593682005840471;0.12062961620997825;-0.36165973498849624;-0.052138183354133005;-0.7176601581890338;0.08124462755883677;-0.4081906273258351;-0.019854301411603714;-0.6394528044558783;0.023117295833737117
D_2min;-15.5;-0.4835438941914081;0.06378888619125966;-0.6946818894080433;0.09686827799195807;-0.38847287755217863;-0.0014730832115263937;-0.8446750773172491;0.11794903428909986;-0.3552173551997484;-0.05069597831115491;-0.7032221844056821;0.0849599206685383;-0.3992793957336307;-0.022465879663061905;-0.6268042620817997;0.02050313433374118
D_2min;-15.4;-0.4712727939180166;0.059732994073747214;-0.6797118819128052;0.09244051734833114;-0.3805798649816303;-0.0014251959825175575;-0.83002434867905;0.1149755539233972;-0.34879153915322547;-0.04930658783803388;-0.688507879919797;0.08868011217411809;-0.3906740255589778;-0.02479638574923637;-0.6139197749460195;0.01809942050293678
D_2min;-15.3;-0.4591834008406277;0.055904096777305234;-0.6648258552028228;0.08803714678780583;-0.37275946030021245;-0.0013807847653728444;-0.8154451914446765;0.11172433196478071;-0.3423899034729043;-0.04797014591481208;-0.6735147122997294;0.09241030116742976;-0.38235893717614466;-0.026846808796642918;-0.6007958313572779;0.015911889083918496
D_2min;-15.2;-0.4473439792167806;0.05226591946400205;-0.6501143981792961;0.08362536294719192;-0.36505863472670974;-0.0013507002398736034;-0.800977862386814;0.10824022110091747;-0.33602352237743993;-0.04667930385600538;-0.6583529831516248;0.09610343918001263;-0.3743140583898832;-0.02863974903350819;-0.5874867447588645;0.013919073185481246
D_2min;-15.1;-0.4358208066996596;0.04878182701354383;-0.6356634686237559;0.07917172634103231;-0.35751949282720474;-0.0013459676684384192;-0.786662349070907;0.10456471007062884;-0.32970335389075167;-0.045427772998420046;-0.6431154394853138;0.09972098873356217;-0.3665149634697489;-0.03019961716650066;-0.5740384324284982;0.012100639917536071
D_2min;-15.0;-0.4246170467531485;0.04545676350684147;-0.621504775111493;0.0746990203529796;-0.3501924746795897;-0.0013615195812990422;-0.7724996302716711;0.10073614183556412;-0.3234094665539029;-0.044204920459998576;-0.6279751893850545;0.1031689425734088;-0.3590053484703901;-0.031523924695685324;-0.5605617138511061;0.010426176783792762
D_2min;-14.9;-0.41372398009483824;0.04230251599585433;-0.6076670120674361;0.07024261426814338;-0.3431401392233937;-0.001388689798418774;-0.7584805870284947;0.0968020587022762;-0.3171138235205362;-0.042996170134895095;-0.6131666844587933;0.10631974360430352;-0.35184956516390287;-0.03260398597126635;-0.5472032064420631;0.008857038943195228
D_2min;-14.8;-0.4031282762201407;0.039331432619174045;-0.5941517784099162;0.06582865730517273;-0.33637762892623435;-0.0014205719060393918;-0.7446043264154456;0.09277781955845033;-0.3107957557207275;-0.041797564217891825;-0.5987516761368195;0.1091328272220018;-0.34506778529244286;-0.03343674884682635;-0.534013298983897;0.0073788719273046866
D_2min;-14.7;-0.39280869527092044;0.036559775140456274;-0.5809520407181878;0.06148894607694633;-0.32991970454263786;-0.001448782199426013;-0.7308651598377649;0.08867683252185632;-0.3044312813180028;-0.04060517870479252;-0.5847940616330547;0.11156492871846346;-0.3386868839229251;-0.0340179029047345;-0.5210477629186254;0.005975736718049518
D_2min;-14.6;-0.3827856825244318;0.03397834302360625;-0.5681330942704044;0.05723371004013522;-0.32382968866215656;-0.0014710095949057589;-0.7172696414218347;0.08456336313493917;-0.29800783314346546;-0.03940239183348382;-0.5715393996670528;0.11349310557211556;-0.33273730191528195;-0.034346182362742894;-0.5084374703694916;0.004612785377116957
D_2min;-14.5;-0.3730886628395762;0.031570448779627114;-0.5557671661504529;0.053061866325047724;-0.3181594122513296;-0.0014875659800059893;-0.7038318904392797;0.08050004349143691;-0.2915193715262152;-0.038174244836076454;-0.5591968848232032;0.11481592533887408;-0.3272255903995873;-0.03442448415336141;-0.4962843868583544;0.003262044933843633
D_2min;-14.4;-0.36372818828538733;0.02932945032341827;-0.5439074946630296;0.048991974777216285;-0.3129883615937761;-0.0014953400856718702;-0.6905484818820069;0.07655077268466481;-0.2849458095944364;-0.036902952364992636;-0.5480502233845908;0.11538786243040633;-0.32221041646779014;-0.034256337465284226;-0.4847595289472455;0.0018734486915743531
D_2min;-14.3;-0.354715883735377;0.0272479686161482;-0.5326089729951047;0.04503984132149075;-0.30838672979331605;-0.0014912932905053466;-0.6774183835666747;0.07277929010685558;-0.27827071983170626;-0.035571372545457614;-0.5383644864851647;0.11507496793704153;-0.31773770219905373;-0.033843161234135444;-0.4740156827746791;0.0004038592004045327
D_2min;-14.2;-0.34604982709369203;0.025320391643805173;-0.5218653578492187;0.041199265498224946;-0.30430522167230833;-0.0014754529846490172;-0.6644605494208884;0.06917498757461793;-0.2714918504570676;-0.034186528959406104;-0.5299960922733771;0.1139473292411024;-0.31373601185022437;-0.03319741972616086;-0.4639675406767392;-0.0011296306298733683
D_2min;-14.1;-0.3377188285861532;0.02354268650808944;-0.5116412743760748;0.03746121138907732;-0.30066766319119687;-0.0014490547377681295;-0.6516947821314343;0.06569997629289404;-0.26460707591843047;-0.03276338232770026;-0.522686601788573;0.11212985010535093;-0.3101167279565562;-0.032340533727112764;-0.45447917379505753;-0.002701477576073863
D_2min;-14.0;-0.3297288041035511;0.021909223938747502;-0.5019461623496326;0.033809902014562354;-0.29738697373904266;-0.001411207592171948;-0.6391522741958022;0.062348462901172574;-0.2576316054372665;-0.03131028659933932;-0.5162294366311766;0.10973494162482211;-0.3067552262010853;-0.03126818375423035;-0.4453882886476208;-0.004260243482964832
D_2min;-13.9;-0.32208344499680663;0.020413751208340436;-0.49278033615517103;0.030225720213807428;-0.29435885863880706;-0.0013616752426290901;-0.6268666280045645;0.059104202926211435;-0.2505828046276868;-0.029838977915217946;-0.5103603448901879;0.1069040412668496;-0.3035093635157633;-0.029978530110289725;-0.43649884516582027;-0.005746494797439716
D_2min;-13.8;-0.3147688005523648;0.01904981296941788;-0.48410492344144984;0.026709445671434295;-0.29156390144339817;-0.0013032928176421876;-0.6148421983824734;0.05594019019862362;-0.2434496238444659;-0.028359370104963588;-0.5049559189107313;0.10369183237518342;-0.3003641694353991;-0.028505855207798803;-0.42779181714126224;-0.007174689627793995
D_2min;-13.7;-0.3077728092677905;0.0178118595649579;-0.4758902661752149;0.023265582635555226;-0.28899866667565455;-0.0012381891819517321;-0.6030802833875981;0.052841319951832944;-0.23622237093146126;-0.026877904889227366;-0.49995306462609257;0.10012537951461553;-0.29732243416381543;-0.02687979887402392;-0.419281140332604;-0.008564829929317064
D_2min;-13.6;-0.30107233965486024;0.016691394905175905;-0.4680728488202597;0.019889617166756857;-0.28661709426411264;-0.001170551863846292;-0.5915855071439022;0.049757481772835455;-0.22888618825941442;-0.025410647603375303;-0.4951270459281609;0.09630528582799958;-0.29434393856348784;-0.025145944930791586;-0.4108975537229469;-0.009925994211411826
D_2min;-13.5;-0.2946439156426095;0.015679895663392784;-0.46058715483998647;0.01657816690110092;-0.28438004093426095;-0.0011049748282312422;-0.5803604247312997;0.0466386609030911;-0.22142670690250732;-0.02397353361734833;-0.4902662859120337;0.0923262227280226;-0.29139952585584794;-0.02335145349036427;-0.4025860944739943;-0.011271628233378017
D_2min;-13.4;-0.28849987183818726;0.014776246045869357;-0.453473278500228;0.013320572606688508;-0.28221282093960376;-0.0010373201169411317;-0.5694343445210208;0.043512519097379077;-0.2138757813252976;-0.02256687891462228;-0.4852758777286006;0.08825983147282734;-0.28837489518485526;-0.021465594929691356;-0.39421403649065745;-0.012538420867902467
D_2min;-13.3;-0.28265952003625117;0.013979835299825716;-0.4467954928122939;0.01010060004690505;-0.28001495322661896;-0.00096107780801713;-0.5588456110688185;0.04042194417389844;-0.20627606274942245;-0.021188295713296945;-0.4800511933951128;0.08419025040062866;-0.2851107491081013;-0.019438304487515268;-0.38559614955122434;-0.013635929265953806
D_2min;-13.2;-0.27713809163117986;0.013288762771371587;-0.4405927236427605;0.006914292596861493;-0.277758294720293;-0.0008741813163997136;-0.5486142091122579;0.03740127967218232;-0.19865930931031706;-0.01983553840315011;-0.4745954736467919;0.08014187817230933;-0.2815572606154877;-0.017246803036241154;-0.3766914396872707;-0.014528637177883219
D_2min;-13.1;-0.2719543342509194;0.012702282081264116;-0.4349145481821637;0.0037575079510228093;-0.2754131787387326;-0.0007736580349808619;-0.5387619000779882;0.034493639156561784;-0.1910632613074661;-0.01850448507503266;-0.46893139746225465;0.07613402785692891;-0.27765991895705966;-0.014859392180900599;-0.3674554531679899;-0.015173441339627836
D_2min;-13.0;-0.2671044607629831;0.012211252984929644;-0.42976878119235984;0.000611012078419293;-0.2728744707960029;-0.0006572882319240136;-0.529314187259394;0.03169876059901444;-0.1835021424287202;-0.017200917354151635;-0.46285345439083514;0.07227963998446185;-0.2732657945094559;-0.012268620429610522;-0.35769919219850976;-0.015511821911786683
D_2min;-12.9;-0.26257655605333063;0.01180289604900775;-0.42513773690468604;-0.00254303200473327;-0.270053294601718;-0.0005256688140855559;-0.5202882677963139;0.028998765886782962;-0.175977872550936;-0.01593373954814936;-0.45614476777888413;0.06868841690346095;-0.2682508315860179;-0.009489171181776612;-0.34726718780224886;-0.01550993803916878
D_2min;-12.8;-0.2583747921992714;0.011474102389607665;-0.42105432112898455;-0.005724454155989989;-0.26682690780693896;-0.00037339602831920615;-0.5117167516550483;0.02641208305367293;-0.16852385968831385;-0.014705461446570922;-0.4486174495007269;0.06547811607058307;-0.2624374102027627;-0.006485025567430469;-0.33593464822707375;-0.015078372166630771
D_2min;-12.7;-0.2544987157382188;0.011218714251263862;-0.41753977779582563;-0.008953104216516294;-0.26308058462910466;-0.00019642415703380323;-0.5036274675521772;0.02394961606694057;-0.1611652202051328;-0.013519377737225113;-0.44008342851336835;0.06276084504831658;-0.25565918310722147;-0.003232076309536147;-0.32349325977182275;-0.01414131374716554
D_2min;-12.6;-0.25094233617808825;0.011023847381182783;-0.414555537522153;-0.012223031041872723;-0.2588761258375474;-3.014126212619317e-06;-0.4960069573392598;0.021598712422343347;-0.15389943298415076;-0.012380296506386834;-0.43060121224222847;0.06050989947644947;-0.24801198708570915;0.00022124851407490098;-0.31008272201419196;-0.01275959767987267
D_2min;-12.5;-0.24770370126684327;0.010880028667486386;-0.4120606492209511;-0.015518667651201135;-0.25432389977801684;0.00019690739421918124;-0.4888329166981311;0.019352217738936695;-0.14672926044215728;-0.011291270789092422;-0.42032805831335907;0.058654251251519796;-0.23966650846776716;0.00382393112902335;-0.29593765856014187;-0.011017625596228875
D_2min;-12.4;-0.24475556278097343;0.010759559590520773;-0.40996642161848307;-0.018835696586907424;-0.24951274877033391;0.00038949410817412655;-0.482073143546323;0.017163386062502006;-0.13961038970620265;-0.010260735132184173;-0.4093021356587929;0.05714823811574199;-0.2307519202613424;0.007472904650368761;-0.2812541483106017;-0.009034885160141393
D_2min;-12.3;-0.24206953183177582;0.010633683261086269;-0.40817462367065893;-0.02216634128991224;-0.24455672263850126;0.0005590402888140389;-0.47568906926359844;0.014981284807776163;-0.13249466861100956;-0.009297458153448623;-0.3975957194537134;0.05592695654870283;-0.22143549600567702;0.01105439288235921;-0.266277783331752;-0.006950572045242076
D_2min;-12.2;-0.23965303176510666;0.010507349176059222;-0.4066867140509558;-0.025497451019018236;-0.23950472859711702;0.000703585401953255;-0.46967458772221793;0.01282746600056317;-0.12541988267966353;-0.008399752848078812;-0.3853430861735774;0.054954412900587;-0.21180741764394462;0.014578083151675969;-0.2511209449586804;-0.004773457406543891
D_2min;-12.1;-0.23751060658020684;0.01038571908460284;-0.4055088825442432;-0.028819636673717675;-0.2343784782083489;0.000823174576504826;-0.4640269983451377;0.010725124494304517;-0.11842343475571226;-0.007565110896051941;-0.37264423149517967;0.05421097580144707;-0.20191699823474707;0.018062345551311587;-0.23584293809735257;-0.0024945161861662513
D_2min;-12.0;-0.23565671003439626;0.010275263076410468;-0.4046402456629288;-0.032113240920929265;-0.2292734800568983;0.0009130360598614828;-0.45873428064222654;0.008697395743067382;-0.11154981313571533;-0.006792150552981546;-0.35970638637900443;0.05362985615435445;-0.19192605990159883;0.021509661161113414;-0.2206454718796529;-0.00014677375903104917
D_2min;-11.9;-0.23410574923193828;0.010184835181267893;-0.4040842490198244;-0.0353580954594781;-0.22427840925658948;0.0009696652217678903;-0.4537850931973395;0.006771180107492114;-0.10484723916807148;-0.006078416878567694;-0.3467402909229538;0.05314503910528057;-0.1819883049702007;0.024931058020876584;-0.2057167708227272;0.002245969516756041
D_2min;-11.8;-0.23280787848397644;0.010076811554380782;-0.40373142383947247;-0.03856100724914757;-0.2194309950703115;0.0009808294428701458;-0.44914197298955294;0.004881851783873792;-0.09824045369994039;-0.005431786853332454;-0.3336898798822272;0.0527352628181843;-0.1721493565392489;0.02820922872997489;-0.1911547794112849;0.004569588679134817
D_2min;-11.7;-0.231697860909156;0.009898141375233038;-0.40343514880885856;-0.04173560922354902;-0.21477606967389384;0.0009294266766728398;-0.4447577433636951;0.002934583571417626;-0.09161790613602427;-0.004864602682078889;-0.320438586323478;0.05238378739377225;-0.16245503148259743;0.031178848542365856;-0.17707281784111473;0.00666719942430305
D_2min;-11.6;-0.23072744196292483;0.009623972542059711;-0.40311303494509687;-0.04488777000806721;-0.21030293891387508;0.0008104060727500695;-0.4406035840833029;0.000885527223990934;-0.08492612157284896;-0.004379954674044839;-0.3069220003617623;0.05208795553708523;-0.15288936850051016;0.03377066915484317;-0.1634740534310506;0.008482030784687566
D_2min;-11.5;-0.2298408952302502;0.009225208031011789;-0.4026718138599428;-0.04802622342085616;-0.20599234885825624;0.0006183264185999349;-0.4366478011850434;-0.0013181036310410121;-0.07809864697756908;-0.003981552485371687;-0.2930472952978178;0.05184996700452249;-0.14342064973195612;0.03590443190947301;-0.1503455233795723;0.009950741062875856
D_2min;-11.4;-0.22901048453134187;0.008666552121384896;-0.4020133050581496;-0.05115351950486957;-0.20194106618193608;0.0003361747274608362;-0.43285492372219814;-0.0037359841570800967;-0.07108275024393151;-0.0036803773690570196;-0.27882579634491655;0.05163146236515015;-0.13418518192866813;0.037457572871683276;-0.13789360378694226;0.010936519297048974
D_2min;-11.3;-0.22822545031257135;0.00792598612846973;-0.40107110251586064;-0.05426605237383697;-0.19825113322867516;-5.010861885512696e-05;-0.42919778291005795;-0.006403396081065438;-0.06386028369895591;-0.003484745236690401;-0.2643269544511888;0.05138948089056683;-0.12533730745987093;0.03834570983996333;-0.12633189505123532;0.011333478015564502
D_2min;-11.2;-0.2274357598751351;0.0069546843730767804;-0.3997108693919813;-0.05737229206284322;-0.1950113976740635;-0.0005597443480445108;-0.425628904255011;-0.00940731364021996;-0.05633638858816603;-0.003407212951096028;-0.24950520942526921;0.05108440998224584;-0.11699055464977981;0.038406507884308105;-0.11585331754153039;0.01097165054126581
D_2min;-11.1;-0.22660202053846135;0.0057098827506969485;-0.39781565418621945;-0.06047891243677039;-0.1923131222394261;-0.0012109270667064465;-0.42210673192009107;-0.012823473814244757;-0.04843479008705209;-0.0034598585658915937;-0.23433412730519443;0.050680100435127606;-0.10926671795661314;0.03749537615926002;-0.1066528100594546;0.009696616145926207
D_2min;-11.0;-0.22572683502477453;0.004218180244068392;-0.3954211907428409;-0.06357217511785329;-0.19011816047851404;-0.001993175728607355;-0.41863397950855674;-0.016605491875047562;-0.040222367004906445;-0.003633297969674487;-0.21891548219954338;0.0501750597694004;-0.10214876697689235;0.035699722360786446;-0.09866955794350751;0.007594320196345095
D_2min;-10.9;-0.22481032646479804;0.0025204665310285534;-0.392589964684106;-0.06663517993770096;-0.18833686524992643;-0.002887399549665659;-0.41521973728607264;-0.020683732743854044;-0.03178399867195658;-0.003911440763940455;-0.20335681162490005;0.04957698234606944;-0.09555313281993527;0.03315893154186966;-0.09174309110843026;0.004810238465363881
D_2min;-10.8;-0.22390572629261563;0.0006672473125810541;-0.38943255013350075;-0.0696472913120374;-0.18695195872116344;-0.003880620922954492;-0.41189427323307104;-0.02496464122696196;-0.023269209474502617;-0.004284675918012404;-0.18784057201137117;0.04890208881154123;-0.08951228589940463;0.030029596412926907;-0.08584196041722514;0.0014892885803448053
D_2min;-10.7;-0.22307275614664412;-0.0012806361832211621;-0.38608216418853836;-0.07258480037680837;-0.18592847804257673;-0.004955677437221695;-0.40869414166999096;-0.029336947302439853;-0.014848364824933569;-0.004740232484143014;-0.17256930331476283;0.048170883104864615;-0.08404016108257473;0.026502321077010116;-0.08089906947358294;-0.0021889924306144337
D_2min;-10.6;-0.22227209242859658;-0.0033138443229470127;-0.382524938718932;-0.07544202733960592;-0.18519228582302638;-0.0061013239796992025;-0.4056028125675679;-0.033790354021888014;-0.006517194353184763;-0.005267136499915281;-0.15755736342198823;0.047375698279396694;-0.07904792934434468;0.022617654051235725;-0.07678601255525841;-0.006172289629163608
D_2min;-10.5;-0.2214643852018039;-0.005432487481246362;-0.37873215504342284;-0.07821714513905142;-0.18469197362241196;-0.007310898110251429;-0.40260088829327323;-0.03833032582376905;0.0017440175095142507;-0.005858315097371225;-0.14279820087439532;0.04650881182720479;-0.07447204951612285;0.01838401568875181;-0.07341618522484339;-0.010441716064032214
D_2min;-10.4;-0.2206057623058495;-0.0076126175591113565;-0.3747107543760837;-0.08089943053888415;-0.1843086266894982;-0.00856490556284406;-0.3996744774398042;-0.042924843827748305;0.009923006263150569;-0.006495848570602369;-0.12832620643122183;0.045563149618851106;-0.07016882212002962;0.013892625782890633;-0.0705761775411613;-0.014890626919253691
D_2min;-10.3;-0.21964891488931215;-0.009833747595721753;-0.3704614010878622;-0.08347993117014152;-0.18392402684589015;-0.009844584735734685;-0.39680781099235585;-0.04754814713019773;0.01801752298017867;-0.007162394063078281;-0.11416188989107745;0.04453165951771254;-0.06599147291790075;0.00922412218011992;-0.06805291255862933;-0.019421764329445423
D_2min;-10.2;-0.2186842408024532;-0.012053602350762027;-0.366110869349102;-0.08594468727711124;-0.18359272578028119;-0.011147203358038205;-0.3940446136516291;-0.052115686794108385;0.025861085264045514;-0.007858818711677706;-0.10047809415073417;0.04344786623849117;-0.06206843088531855;0.0044994273888221414;-0.06593823995522641;-0.023935153978170476
D_2min;-10.1;-0.21784308833431254;-0.01421530918861258;-0.36183405948659875;-0.08827461717997487;-0.1834045554930661;-0.012471182203050546;-0.3914475192839868;-0.05651329264227112;0.03322577621073641;-0.008588254365030856;-0.08751342990395727;0.04235532652155616;-0.05859371975970795;-0.00012208482546238741;-0.06438516325642496;-0.0283040198571749
D_2min;-10.0;-0.2171923834692251;-0.016299820391518338;-0.3577100401657667;-0.09046517013952471;-0.18342760838274685;-0.013819745841068709;-0.38904561470514754;-0.06069725003600901;0.04000738181491137;-0.009355798674131499;-0.07536802775266693;0.0412811770535253;-0.05569225557371382;-0.004591886493732211;-0.06351030727755358;-0.03249564262565929
D_2min;-9.9;-0.21681437217197086;-0.018287017357823565;-0.3538310738454964;-0.09251224721192752;-0.18375024765204095;-0.015198294470421203;-0.3868746667473584;-0.06461957815039909;0.04608682689874222;-0.010168987406799168;-0.06415211940473853;0.040258066346926746;-0.05351889577233315;-0.008861013441493704;-0.06346504383036589;-0.03648070540977333
D_2min;-9.8;-0.21677564822650552;-0.020118923855009463;-0.35032379805820035;-0.09439304112062885;-0.1843663223147214;-0.01659325722965832;-0.3849685294443086;-0.06817876161365;0.051297372266750685;-0.011018177778116645;-0.054069833105545584;0.03930168509184906;-0.052127281584519736;-0.012754312521929378;-0.06423255881437484;-0.0401033293696047
D_2min;-9.7;-0.2171044508628679;-0.021745970507841328;-0.3472752528346845;-0.09608666979180569;-0.1852302995169186;-0.017987847403158952;-0.383342887077343;-0.0712939473111307;0.05552300816433231;-0.011889525594573236;-0.045281713741919916;0.03841350985517433;-0.051504740416753236;-0.016116840838253488;-0.06572701920941704;-0.04321913757801976
D_2min;-9.6;-0.2179177960007017;-0.023101072713219928;-0.34486667360387635;-0.09757055066077758;-0.18638270902455822;-0.019372514976268462;-0.38205698839759616;-0.07383965511997115;0.05853860895249419;-0.012779076858946858;-0.03802815311192198;0.0376323146266504;-0.051778352660834415;-0.018750960705376407;-0.06800832457490635;-0.0456591580521728
D_2min;-9.5;-0.2193119290160439;-0.024121446987734885;-0.3432562528133172;-0.09882239986301755;-0.18784606549936633;-0.020736192719890134;-0.3811591466361799;-0.07570183436273048;0.06014621446428947;-0.013680606450106936;-0.03253214475573074;0.03698602379741445;-0.053044881263023314;-0.02046999345053102;-0.07110600793661881;-0.04726248194518945
D_2min;-9.4;-0.2212225630956457;-0.02483339149368291;-0.3423682457533044;-0.09985241935456735;-0.18958484941866516;-0.022077913119681547;-0.38061374947319937;-0.07693314224292092;0.060446238604175306;-0.014590744791231458;-0.028697276253542015;0.03645593288904436;-0.05522919542037563;-0.021348542746341792;-0.07495411523414397;-0.048089468085048104
D_2min;-9.3;-0.22356761729045438;-0.025288071873539764;-0.3420867113757442;-0.10068290867687946;-0.19157769981596395;-0.023403449751286942;-0.3803757530935057;-0.07762677725258449;0.05959941141052383;-0.01551167816934651;-0.026339105971707966;0.03602640500351306;-0.05824984789869525;-0.021536694137267887;-0.07950977974636864;-0.04826812911742451
D_2min;-9.2;-0.22618769744651246;-0.02552708578379903;-0.34223238156582525;-0.10132214468937661;-0.193703753760051;-0.024703736441189506;-0.3803589935429015;-0.07788087230372298;0.05781931120680106;-0.016428427399532985;-0.025303844769965167;0.035625725929874896;-0.06189631413041674;-0.02114616730575669;-0.08456652322869829;-0.047884114158153857
D_2min;-9.1;-0.2289001535747328;-0.025604566371178805;-0.3425927388292944;-0.10178306211037125;-0.19583258381772772;-0.025970916253690746;-0.380465186104022;-0.07781729414449678;0.05536310721910098;-0.017326228612666306;-0.025390647326398508;0.0351754204818695;-0.06593114297555935;-0.020325412913488883;-0.08990137605946735;-0.04705404881678721
D_2min;-9.0;-0.23173004139000142;-0.025542741804069458;-0.3431814988626911;-0.10208460578168754;-0.19801770495123172;-0.027214903155687864;-0.38070606520908257;-0.07746307800972563;0.05225077817716084;-0.018215734343022483;-0.026512053570684202;0.034709610190127194;-0.07040254448063976;-0.0191426760781237;-0.09559118886960327;-0.04584322220207149
D_2min;-8.9;-0.23472061293939106;-0.025351383651727843;-0.3440406835349119;-0.10224067120201319;-0.20031620370385816;-0.02844360734230289;-0.3811024260798481;-0.07682361116107739;0.04846573511313146;-0.01910639990839691;-0.028625494976482813;0.0342644788538875;-0.07537574871720842;-0.017628599946720946;-0.10171878578456095;-0.04428580793241821
D_2min;-8.8;-0.23787728959313093;-0.02507342694788761;-0.345146224409989;-0.10227988806101695;-0.2027877752770344;-0.029671631799987885;-0.38165586635492055;-0.07596022020694981;0.04408320022927548;-0.020012609588489383;-0.03156452455460723;0.03387652396994234;-0.08088507835521597;-0.015916025490798624;-0.10836944789995151;-0.04250282871924771
D_2min;-8.7;-0.24121822591802378;-0.02474945570420317;-0.34648846785932896;-0.1022311983601254;-0.20550187568000666;-0.03091445800531023;-0.38237467686058313;-0.07492816278682302;0.039164273942772;-0.020950115313306483;-0.03516976235342284;0.03358833763322;-0.08697985083104953;-0.014130852720164455;-0.11564392997667916;-0.04061079051842764
D_2min;-8.6;-0.24456480389156532;-0.024399861337058404;-0.3478869667816884;-0.10208826733375709;-0.2082903127651896;-0.03215249186729707;-0.38315984273432324;-0.07380248921383803;0.03390909902647543;-0.021892924189717;-0.03936330856419801;0.03329463348701811;-0.09340238183326477;-0.012315450603252565;-0.12325869730158523;-0.0386359716273903
D_2min;-8.5;-0.24766294785357168;-0.024047497019777708;-0.34908635285045797;-0.10183710182992556;-0.21090777972415964;-0.03335636303869194;-0.38387157249132464;-0.07267983767648012;0.0285889887573596;-0.022802635413667893;-0.044058563676639295;0.03284258607366741;-0.09978602399821845;-0.010514209643878836;-0.13080464809324432;-0.036599324570508074
D_2min;-8.4;-0.2504112988454157;-0.023693725163647983;-0.34999874796510255;-0.1014703804276973;-0.21323934976300052;-0.03451017382845656;-0.3844522075220773;-0.0715903234966504;0.023305613131025638;-0.023660037939214895;-0.0492413058335579;0.03216318944919294;-0.10596346078340702;-0.008712945246530879;-0.13808365551539126;-0.03448467100763963
D_2min;-8.3;-0.252690573492627;-0.023336620408805686;-0.35052152902682465;-0.1009766810008168;-0.21514657528997994;-0.03559427824107342;-0.384834039528398;-0.07056412180193394;0.018171821225504203;-0.024441585618258266;-0.05490889856920589;0.031172415792424246;-0.11173767383729327;-0.00688530217500638;-0.14485956618326234;-0.03226407592483582
D_2min;-8.2;-0.2543129969260711;-0.023016065880958614;-0.350446780358844;-0.10035985289899063;-0.21647870154570192;-0.03659459685888056;-0.38491373867557765;-0.06970453607901916;0.013431507428188993;-0.02512656873325181;-0.06089970013612245;0.029779847975317075;-0.11685354337288345;-0.005141367370018024;-0.15087342084798117;-0.030019530428982755
D_2min;-8.1;-0.25515051522781107;-0.022773285571112467;-0.34962321288303144;-0.09963201301419478;-0.21714917085539476;-0.03750580040554219;-0.38462060714590596;-0.06910188487552382;0.009278940311569173;-0.025705244216487344;-0.0670412045565314;0.027937629450807577;-0.12114211920202855;-0.003601336729188276;-0.1559690043166242;-0.027846243922401648
D_2min;-8.0;-0.254946090618434;-0.022647130099148427;-0.3477745480447698;-0.09878740662466168;-0.21693389527908025;-0.03830380796562949;-0.3838126178307215;-0.06887638091703074;0.006020054345086123;-0.026144299410154836;-0.07317842221062065;0.025504579453488496;-0.12424721616383216;-0.002365449398977759;-0.1597703598536313;-0.025814505920501496
D_2min;-7.9;-0.25347242365947587;-0.022675335578472122;-0.34465394246632464;-0.09782330632686431;-0.21563882957309666;-0.038968164603564226;-0.38236397312662884;-0.06913890446903626;0.003933153269601419;-0.02641527366296348;-0.07915474916076803;0.02236101877819774;-0.12585450271638976;-0.001534918955599096;-0.16194915286838452;-0.023996738020503727
D_2min;-7.8;-0.2508713922511827;-0.022846656625546302;-0.34041985113701756;-0.09675574439725132;-0.21338447980039454;-0.03951193874558001;-0.38034893934728764;-0.06984246578551989;0.0028892585645436952;-0.026537173057269214;-0.08497649718341194;0.018594978611158552;-0.1261282000169608;-0.0010764604031043845;-0.16268439977530136;-0.022379495543166428
D_2min;-7.7;-0.2473626594072158;-0.023132224981800675;-0.3353212162048749;-0.09560014139602657;-0.21034816866781547;-0.03995267901916133;-0.3778829536726951;-0.07089804838773617;0.0026630586678049184;-0.02653635505595897;-0.09071292628292937;0.014328786787145553;-0.12532674487404627;-0.0009031183276926313;-0.16224852838585058;-0.020911803866912493
D_2min;-7.6;-0.24321045853875845;-0.023518329927444626;-0.3296366360284395;-0.09438622852259826;-0.20677778010100845;-0.0403191613869085;-0.37510766035293663;-0.07222217773440232;0.003012901425522685;-0.026452609988083076;-0.0963573785781584;0.009743014134712347;-0.12379127199688789;-0.0009940619350992108;-0.16102222107425668;-0.019594435624607165
D_2min;-7.5;-0.23873179563232583;-0.02398469430287431;-0.3237018933696536;-0.09314667751138206;-0.2029666557401999;-0.040645156279214945;-0.372193212010421;-0.07370928906836127;0.003639831697013207;-0.026332718331771865;-0.10192420190371365;0.005048440633634854;-0.12193142436623461;-0.001310744043200529;-0.15945945716802612;-0.018417173275033782
D_2min;-7.4;-0.23397515801670465;-0.024511217791285844;-0.31758439594362997;-0.09187867600904198;-0.19893113337878177;-0.040927782563975335;-0.3691594290785556;-0.07532755849093409;0.004489475829656087;-0.02617598489096462;-0.10745872525388656;0.00025234560881326473;-0.11977418956269936;-0.0017826961422713339;-0.157577769395294;-0.01733528059501399
D_2min;-7.3;-0.22893896239637535;-0.02508357083899959;-0.31129511746176064;-0.09057576993809402;-0.194646408948568;-0.0411592249091397;-0.3659985162121009;-0.0770651506429827;0.0055620987611941786;-0.02597501108784339;-0.11298282154971595;-0.004664807393586656;-0.11728420560974584;-0.002358794788515972;-0.15532858953901396;-0.01631602171466806
D_2min;-7.2;-0.22374392258894993;-0.025670552627695464;-0.3049840068127523;-0.08923889325709933;-0.1901834853008335;-0.04134303077425372;-0.36276946591078296;-0.07885719277190795;0.006720019100848518;-0.025738061068733664;-0.11858628257453496;-0.009660236678980638;-0.1145745044154367;-0.0029303305259897883;-0.15281797379960516;-0.015288980847593336
D_2min;-7.1;-0.21849177926685925;-0.02624059138184709;-0.2987805883526633;-0.08786577480341862;-0.18559535263752203;-0.041480008289450865;-0.3595202701187352;-0.0806435112401731;0.007842893053673805;-0.02546993137538678;-0.12435969508545419;-0.014704778245266503;-0.11173336011604285;-0.003387704007897341;-0.15012413899781762;-0.014182372020890455
D_2min;-7.0;-0.21340016180663035;-0.026791450492089197;-0.29289898093999156;-0.08648479724150793;-0.18110840625915792;-0.041596341021690186;-0.3563664269015794;-0.08236424395562203;0.008750408097370155;-0.02520676462860827;-0.1302317750310742;-0.019624187190923514;-0.10906075184946751;-0.0037646925463477032;-0.1475915173244733;-0.013033331798675718
D_2min;-6.9;-0.2087603040447128;-0.027327399166596322;-0.2876219094714241;-0.08513832616669248;-0.17703315510976658;-0.041730678158283574;-0.35346555633525867;-0.08394611577206845;0.009203986401473685;-0.025000292840301697;-0.13609472828920666;-0.02417770333109548;-0.10696724357660337;-0.00412774237591762;-0.14569517207927696;-0.011905516298952534
D_2min;-6.8;-0.2046666604337517;-0.027849360877350016;-0.28303124610474306;-0.08383825310178583;-0.17348244989996076;-0.04189323789251986;-0.35086336791733785;-0.0853673586402941;0.009143124429938254;-0.02486589097483538;-0.1418673323469264;-0.028275734339749725;-0.10559214469989087;-0.004518439674194852;-0.14460220028737325;-0.01083813005163492
D_2min;-6.7;-0.20121869374709433;-0.028361436480992985;-0.27920928052324;-0.0825985387503767;-0.1705813467809687;-0.042096054445787345;-0.3486083537490421;-0.08660776692745475;0.008507266035804761;-0.024821146595487953;-0.14745089585008486;-0.03181771178909276;-0.10508891718261815;-0.004994579857424242;-0.14449855616439677;-0.009882071847370888
D_2min;-6.6;-0.19870007399822498;-0.028856992556652195;-0.2764487954469441;-0.08145750129435925;-0.16860024691419895;-0.042374326824637265;-0.3468537806139915;-0.08758335686175123;0.007043105682450701;-0.024912991632210613;-0.15281276959257895;-0.034598059333471376;-0.10582531226162395;-0.005556253101117292;-0.14579860137593315;-0.009052368391516907
D_2min;-6.5;-0.1973463123427308;-0.029324520020272082;-0.27499973213877205;-0.08044471249449003;-0.1677498201351888;-0.04275532650396752;-0.34572549969443234;-0.08821836278645279;0.004533368790234249;-0.0251780802146504;-0.1579537282743413;-0.03645916854345632;-0.10809149548270902;-0.006173739573492654;-0.14882452576217098;-0.008341096483344579
D_2min;-6.4;-0.1974913911820373;-0.029761071995807242;-0.27519616030554417;-0.07960580568613995;-0.1683657008958992;-0.043282456654999635;-0.34540406662892664;-0.08841620175445364;0.0006827770235453556;-0.02567422043656098;-0.16280978657852074;-0.0371434324555322;-0.11234297421420969;-0.006879360301855542;-0.15409323466458247;-0.007786536366256591
D_2min;-6.3;-0.19944175716709545;-0.030164132611770533;-0.27734643033214823;-0.07898392286468425;-0.17075131313917602;-0.043995974426591644;-0.3460548528874412;-0.08808823924007836;-0.004780110753534572;-0.026454714347861952;-0.16732719184696343;-0.03641756504826521;-0.11899141150794534;-0.007696609780977859;-0.16207125981547676;-0.007419866835069122
D_2min;-6.2;-0.20303942601979585;-0.030522913850505873;-0.2812860524348437;-0.07855000085866415;-0.1747427406382176;-0.044868697303177996;-0.34757961886295874;-0.08726972321334436;-0.011704340211995401;-0.027486334325754314;-0.17151733437431993;-0.034408967093120246;-0.12780632616600052;-0.008586633746912042;-0.1724978449373289;-0.0072142744909458045
D_2min;-6.1;-0.20800148484714498;-0.030825440967635842;-0.28671648361263813;-0.07825434715847202;-0.18006074856772614;-0.045855483908854744;-0.3498079991474343;-0.08602839346627089;-0.0198240218744683;-0.028713316405427847;-0.17539424163855166;-0.03133311734589661;-0.13839826040317682;-0.009510465300670568;-0.18493352564112442;-0.007137939484915812
D_2min;-6.0;-0.21406881629559749;-0.031064005305120546;-0.2933840876826004;-0.07806158035423127;-0.18641603129274387;-0.046918292789709604;-0.3525873531324182;-0.08443155904809796;-0.02889942959603964;-0.03008624265459492;-0.1790122075232805;-0.027411420936882536;-0.15036471172806287;-0.010389616311068828;-0.19891977329321797;-0.007133647399534482
D_2min;-5.9;-0.2209159224789463;-0.031229617739184867;-0.3009675072081457;-0.07792596850248579;-0.19345235333821797;-0.04800957188815058;-0.3557274550175009;-0.08256399121240587;-0.03863126663270933;-0.031543364691321685;-0.1824363713424937;-0.022916976611705664;-0.16321178666934877;-0.011136053237081889;-0.21389435349498953;-0.007135305903866573
D_2min;-5.8;-0.22841853922842859;-0.031315028191534644;-0.30931546536183596;-0.07782019948238883;-0.201069966731394;-0.04910821111584429;-0.3591448622022462;-0.08044636640234604;-0.048900422799054155;-0.033060722238149154;-0.18563676838686405;-0.01792413486064337;-0.1767984341726372;-0.011763377188630741;-0.2296994353239601;-0.007148751910277085
D_2min;-5.7;-0.236513103820009;-0.03131717033575576;-0.31833841744319535;-0.07772942563516416;-0.20922940140773427;-0.05020372388435046;-0.36279082491807646;-0.07808462239163383;-0.05964324069584315;-0.03462748940104188;-0.18857366542611942;-0.012458458486823254;-0.19106609480542325;-0.01229732852970411;-0.24627042356656403;-0.007189329196573446
D_2min;-5.6;-0.2449725832781997;-0.031223203962435164;-0.32777657642107805;-0.07760559873700501;-0.21773429669661049;-0.05125810135971953;-0.3665235684934025;-0.0755250962221572;-0.0706472803259075;-0.03619834846803194;-0.19122755513886425;-0.006671516597084981;-0.20574244447318435;-0.012740190174065802;-0.2633019829858423;-0.007252498288871756
D_2min;-5.5;-0.25358269578951287;-0.03102202011839328;-0.33738070705812717;-0.07740342810782597;-0.22640426422574755;-0.05223607284813969;-0.37020816338030293;-0.07281033093929246;-0.08171251787154787;-0.03773148089475953;-0.1935735964640557;-0.0007014104452185421;-0.22057736599229116;-0.01310292064957519;-0.28051374205114143;-0.007338980045225263
D_2min;-5.4;-0.2621661373625539;-0.030721777474246537;-0.3469886736635619;-0.07711704481736259;-0.23501571747734928;-0.05312043939351607;-0.3737420804548268;-0.06999586822789805;-0.09267531342414514;-0.039200661547313054;-0.19566564580206602;0.0052908716980351045;-0.2352573254701138;-0.013317475420554281;-0.2975463871606081;-0.00739917034950377
D_2min;-5.3;-0.27051456925764406;-0.030331859756991264;-0.3564225032268844;-0.07674248719438204;-0.2432894776574006;-0.05389135945350887;-0.3770094457384223;-0.06715199330870725;-0.10334440085685337;-0.04057401513209946;-0.19759106217790467;0.011101408407318658;-0.2493920366336031;-0.01327905516857264;-0.3139522457798787;-0.00735955672271249
D_2min;-5.2;-0.2785569732440205;-0.029867152492223603;-0.3656175681544447;-0.07629202491191656;-0.25112320114035924;-0.05454976870728956;-0.37996536136065373;-0.0643021200925249;-0.11365659417252161;-0.04184926470667527;-0.19937390221391915;0.016666596476690998;-0.26283557940576685;-0.012962926696940436;-0.32956045959132574;-0.00719874698219769
D_2min;-5.1;-0.28623084997806814;-0.029345965904121307;-0.3745225755633079;-0.07578389765371707;-0.2584152862620872;-0.055099989207870514;-0.3825711550848636;-0.061470277563593356;-0.1235573502992704;-0.04302740707508779;-0.20104446411210297;0.021926028635332884;-0.27544306314524825;-0.012339522474760223;-0.34420035852817854;-0.0068920479646434885
D_2min;-5.0;-0.29327355211234973;-0.028759635988855337;-0.38288532668811115;-0.07518332339984646;-0.2648658405307458;-0.05550452406357298;-0.38467803262050015;-0.058730663235031955;-0.13280577658653137;-0.044056824099984127;-0.20267413099213094;0.026647653911267;-0.2868006288873435;-0.011314500696118834;-0.3574019615871755;-0.006373467571555658
D_2min;-4.9;-0.2994347734516438;-0.02809415899111123;-0.39045330681082824;-0.07444812298980974;-0.2702084015306454;-0.055724283017656084;-0.3861416341826489;-0.05614751310081001;-0.14117318590298922;-0.04488572070896879;-0.20431494331216626;0.030621332605877072;-0.2965423643385936;-0.009815602436430204;-0.36875092042301816;-0.005591401224417147
D_2min;-4.8;-0.30442950902843435;-0.02735161952060139;-0.39696509296563676;-0.07355485355525815;-0.2740980066655059;-0.055725324610873095;-0.386804343866884;-0.053810741110492444;-0.14839939163878846;-0.045463825769194166;-0.20605683009782894;0.03359073759471176;-0.3041919508802291;-0.007731232974203195;-0.3777040625436108;-0.004466818578813481
D_2min;-4.7;-0.30798866345731213;-0.026529379559052657;-0.40217027151919815;-0.07247614107232359;-0.27621506779498084;-0.05547327785279066;-0.38651701439139874;-0.05180253184940842;-0.15423960861816788;-0.04574111250673596;-0.20798232253048354;0.03531598559017102;-0.30930998410439337;-0.004956263309400022;-0.3837607214856149;-0.0029258977722665946
D_2min;-4.6;-0.3101688386650139;-0.02563371091347033;-0.4060868849380608;-0.07121921244983032;-0.27666032643770144;-0.054980872185875995;-0.3852978450408857;-0.05008984614267842;-0.15875447394171083;-0.045736087698363015;-0.2100322275721176;0.03588457115637933;-0.31203780600791653;-0.001570609927759925;-0.3870773438348678;-0.0010146812130020777
D_2min;-4.5;-0.31112101903925016;-0.024683081957399544;-0.4088165765744467;-0.06981223321495378;-0.2756455509042617;-0.05427995478272418;-0.3832148479619093;-0.04861205705340854;-0.16209381916403132;-0.04549230124656756;-0.21210797475425025;0.035480433267328415;-0.31266969201535844;0.0022914751029636804;-0.3879815407096139;0.0011871243283341215
D_2min;-4.4;-0.31096257851789666;-0.023657784034821994;-0.410418429641469;-0.06823944737487952;-0.27337171503308255;-0.05337701224192504;-0.38031806408992974;-0.047303490360370404;-0.16437531577896358;-0.045024448750898394;-0.21412336766963058;0.03424960550327416;-0.3114926881230353;0.00653392839136302;-0.3867990101332204;0.0036168777599208113
D_2min;-4.3;-0.3098568275436744;-0.022539317218061683;-0.4109894351814738;-0.0664899036664286;-0.27009953936240727;-0.05228522061596497;-0.3766816994485689;-0.0460825731807013;-0.1657599898075972;-0.044356827262852505;-0.2159734660602517;0.032383803257794774;-0.30887646927679846;0.011034247137802211;-0.38394904214420045;0.006194918935285898
D_2min;-4.2;-0.3078487308686153;-0.021363597203248652;-0.4105536561316825;-0.06460255431343764;-0.26588626111821334;-0.05103265777410826;-0.37232267378360273;-0.04493886992007656;-0.16630047169547524;-0.04352127296329211;-0.21760118623233282;0.029971244689608767;-0.30490313586049744;0.015710744601086013;-0.379515313283461;0.008878736280159671
D_2min;-4.1;-0.3049431565221905;-0.020162251681323795;-0.409103797870193;-0.06260939153493528;-0.26073660868880744;-0.04964004133108091;-0.36723884226179937;-0.0438768832451899;-0.16601201579141645;-0.04253865637039311;-0.2189679628467438;0.027059875617527318;-0.2995846936445403;0.02051223343844555;-0.37350249116497025;0.0116441459909149
D_2min;-4.0;-0.30126099400973594;-0.01898205588373436;-0.4067295990962201;-0.06056688357523665;-0.25479995999760874;-0.04815140016733466;-0.3614875479773936;-0.042863436201365346;-0.1650187001586776;-0.04146245839713991;-0.21999430088551897;0.02380722113157674;-0.29312565931033774;0.025306243397173134;-0.3661320953162637;0.014418676307927925
D_2min;-3.9;-0.2969160723150317;-0.017872176146745744;-0.40351743745042334;-0.0585336924573836;-0.24821312960556519;-0.04661120048511069;-0.35512359173957275;-0.0418704512718886;-0.16343834905063304;-0.04034565649252997;-0.22060247919604237;0.020366187158118443;-0.2857143796116439;0.02996569591781384;-0.35760681272759776;0.017133306629387945
D_2min;-3.8;-0.2919778007440055;-0.01678257017762963;-0.39949026084245354;-0.056461456678048805;-0.2411227244953178;-0.04500394552159914;-0.34817992492583993;-0.04084651293488051;-0.16134392197815295;-0.039173184113351134;-0.2207407113268669;0.016825039568520772;-0.2775742018142697;0.03446611751009865;-0.3481846258995809;0.01976276446856673
D_2min;-3.7;-0.2865324458293337;-0.015635902584088868;-0.3946762029234385;-0.054274401220866686;-0.2337180380743007;-0.04330136824826081;-0.3406984319624753;-0.039722119485571916;-0.15882291782011748;-0.037917699760357415;-0.2203606021744431;0.01327524436460692;-0.26898966996276563;0.0387914996130565;-0.3381979772500614;0.022282035051003568
D_2min;-3.6;-0.2805776800459565;-0.014394573791083332;-0.3890471340154882;-0.05193157432254836;-0.22603958475040464;-0.04148530546703455;-0.3326772432431282;-0.03848124694440713;-0.15588250936770187;-0.03655549894097021;-0.2194252875442828;0.009751267997295088;-0.2600426969606886;0.042955918051699626;-0.3277416927239116;0.02469139596726322
D_2min;-3.5;-0.2741063072655159;-0.013009978891666663;-0.3825702596695919;-0.04938086621867832;-0.21812671707628262;-0.0395311332916819;-0.3241138311115579;-0.03710739350553194;-0.1525245970081155;-0.0350548959045609;-0.21790398425704183;0.006278287002512428;-0.250816137832226;0.04698846765105724;-0.3169136029013604;0.026997883789750432
D_2min;-3.4;-0.26725497650122954;-0.011452109700384128;-0.37532711999492285;-0.04659955261299942;-0.21020575298606126;-0.03744287117028122;-0.31507734842568347;-0.03553086292657959;-0.14888419855837043;-0.03342833358007802;-0.21575001498387536;0.0029841871114113516;-0.24162545360865728;0.05080100756715211;-0.30607624882925855;0.029143190507916472
D_2min;-3.3;-0.2601560490488666;-0.009717638869760847;-0.3674030567492821;-0.04359193208584955;-0.2024801956617477;-0.03523833438384383;-0.30563485196805473;-0.03369438437247041;-0.1450932292327458;-0.03170333632879174;-0.21291693001941425;-2.0851506947749954e-06;-0.23274854208115237;0.05428565186091916;-0.2955457644329744;0.03106245266782004
D_2min;-3.2;-0.2529693560475046;-0.007743241789556876;-0.3588986185900751;-0.04030588080285025;-0.195218985070845;-0.03290736722555643;-0.29587420086287874;-0.031514732839736936;-0.14130540659687263;-0.029875334170103685;-0.20936424050177216;-0.0025465821069659;-0.2245670705247793;0.057383159981584164;-0.28576553644619906;0.032706516829888344
D_2min;-3.1;-0.2458466546587772;-0.005478594356601363;-0.3499112187069304;-0.03670211093254938;-0.18867293971401722;-0.030445810832613773;-0.2858799149483007;-0.028917164086205815;-0.13766659046364715;-0.02794630092753625;-0.20506123441562707;-0.004527470133425027;-0.21743175343521592;0.060025954173820395;-0.277142740386493;0.034024533719174244
D_2min;-3.0;-0.23871726010136918;-0.002974574967671728;-0.3403888034340099;-0.032826648585808194;-0.18272864868015404;-0.02787447562391243;-0.2756204443569903;-0.025954322441359423;-0.13412230624151888;-0.02592948192685629;-0.1999892839606332;-0.005953855102459826;-0.21119756957605418;0.06220596498957942;-0.2695021606701218;0.03502033396278037
D_2min;-2.9;-0.2314525454637124;-0.0002920655473923617;-0.3302437648941332;-0.028733657611375918;-0.17717952954817662;-0.025212614391913135;-0.2650392451575998;-0.022712882152057468;-0.13056410848436428;-0.023829331997573533;-0.19413661691162432;-0.006872902017548199;-0.20559961857146725;0.0639581893092096;-0.2625296895529381;0.0357236795785667
D_2min;-2.8;-0.22394503437105406;0.002459507020868834;-0.3194028920024117;-0.024525173728470406;-0.17183660777252285;-0.022507617210395736;-0.25408484289959077;-0.019277643381220066;-0.12690261310811302;-0.021690039569927322;-0.18752455970474458;-0.007346623021021514;-0.20035981891601118;0.06522627983281293;-0.2558938340516175;0.03612557335311273
D_2min;-2.7;-0.21605857955102614;0.005155796464924478;-0.307775519378124;-0.02031614350915767;-0.16646157737169176;-0.019810918678991207;-0.24269123853852825;-0.015751183550092307;-0.12302247581856918;-0.019558225297272358;-0.1801772635091723;-0.007454690239449668;-0.19513230497975265;0.0659619600056578;-0.24918359298395032;0.03622454604073866
D_2min;-2.6;-0.2077640136167247;0.007806434353821778;-0.2953581714367921;-0.016105436856859612;-0.16100029092403823;-0.017119408749236342;-0.2308709414532144;-0.01217611988067091;-0.11889872629997633;-0.01741293835740887;-0.17210056844190902;-0.007205404739169197;-0.18986948856871777;0.06623507557137653;-0.2423450632541826;0.036053719720047894
D_2min;-2.5;-0.19906771088957775;0.010434405709917272;-0.2821756981970367;-0.011883158359739632;-0.1554518796656872;-0.014428108817707397;-0.21865924563535888;-0.008579913574304321;-0.11453589357000027;-0.015233114497564593;-0.16331821967893667;-0.006603544427163044;-0.18458947161791883;0.06610637771156824;-0.2354033307716339;0.035638865078309934
D_2min;-2.4;-0.18988789182524535;0.01303384915119743;-0.2681882471448631;-0.007656480883095007;-0.14967955010204115;-0.011733298067580833;-0.20603653463020066;-0.005028675001427452;-0.10986445688816104;-0.012994404341333698;-0.15381253295415398;-0.00566552412729493;-0.17914399645058054;0.06567426348009242;-0.22818507286485357;0.03503119855974024
D_2min;-2.3;-0.1801562693415928;0.015608671604060653;-0.25337023170058437;-0.003426486775581772;-0.14356425204167067;-0.009028651996993986;-0.19299531582236717;-0.0015855247863978406;-0.10482485634948091;-0.01066872265174279;-0.14357762431161802;-0.004410690245526538;-0.17340801767907976;0.06504521020024612;-0.220545864066505;0.034284428808835976
D_2min;-2.2;-0.16983037331728745;0.018044555908703686;-0.23770855527123302;0.000690036442116515;-0.13699892913813017;-0.006373734781329965;-0.17952951863932487;0.001680770509476126;-0.09937703018952426;-0.008320638867089336;-0.13272043104202247;-0.0029406475087183637;-0.16717255626275573;0.06411075289745849;-0.21224195504817267;0.03336474574239201
D_2min;-2.1;-0.15884702741285928;0.020178111737433113;-0.22116955175276232;0.004534735793432887;-0.1298385203214547;-0.003849310644929993;-0.16561045331821234;0.004691779509940375;-0.09346516193981103;-0.006044965388968926;-0.12135562048679915;-0.0013742858422682858;-0.1601537509950539;0.06270014398978052;-0.20293903531043256;0.03221555463604098
D_2min;-2.0;-0.14724475155401429;0.02195151262641204;-0.2038150422537548;0.008028446770062203;-0.12209211972914957;-0.0015001251723418818;-0.15129714202730593;0.0074047585071301825;-0.0871130671676319;-0.0038861870876187865;-0.10963391240920295;0.0001930637594673712;-0.15230082078870488;0.06073677202259642;-0.192585399441505;0.030808798045828034
D_2min;-1.9;-0.13507126967283511;0.023296665423364615;-0.1857155643992794;0.011081268693433621;-0.11377758310848307;0.0006227517210568578;-0.13665355995474915;0.009778170229586713;-0.08035110696727088;-0.0018983724018273307;-0.09772549020001442;0.0016538622484372212;-0.14356172353143748;0.058123257641313764;-0.1811288115418037;0.029107849827902044
D_2min;-1.8;-0.12221895907345726;0.024081840715507674;-0.16680048398352554;0.013579469034289637;-0.1046977435067209;0.0024667738257004856;-0.12161315271181028;0.01173582729920053;-0.073094402095645;-0.00014203139643331752;-0.08563380964249845;0.002961225090682973;-0.13364010591203446;0.05477928691765044;-0.16821532513985638;0.02709506502562231
D_2min;-1.7;-0.10858890365844154;0.02421239440654599;-0.14700918224550463;0.015443472601678998;-0.09467362623823838;0.003997631988088557;-0.10611798882977919;0.013209918567764767;-0.06526682726459931;0.001346725755888123;-0.07333235518348324;0.004099097764938442;-0.12229094836985688;0.050679241066532654;-0.15355154697996554;0.024773435667770904
D_2min;-1.6;-0.09407361687522453;0.023514762440373538;-0.12627646797598757;0.016520356507729872;-0.08349310564250345;0.005142495930771318;-0.09010023353976582;0.01411511692940337;-0.05677782869444137;0.0024783426245278406;-0.060885072272702345;0.004965805612521024;-0.10915683569893453;0.04568803509479391;-0.13671506382043397;0.02210623284341562
D_2min;-1.5;-0.07857093174610874;0.021830668096070482;-0.10454025368061615;0.016675311704093865;-0.07095641920962592;0.005837991817354116;-0.07349100090330651;0.014375914163486492;-0.047544442237368756;0.003173334958414209;-0.04832470891697227;0.005489519179198155;-0.09391315674768563;0.03969266135143812;-0.11732070979708453;0.01906418474934579
D_2min;-1.4;-0.06222076565932255;0.01926052989607463;-0.08196463661761477;0.0159631135397591;-0.05723122226439692;0.006106537283659286;-0.05643382856770529;0.013998978988675859;-0.03767495663452891;0.003475700679875793;-0.03575833839232345;0.005667122605202302;-0.07679970510850254;0.03280832827565927;-0.09566541074779344;0.01568663005786064
D_2min;-1.3;-0.04524618841660999;0.0159635693588136;-0.05879571473661471;0.014475717252959264;-0.04260066341960744;0.0059856080571991654;-0.03914562008482303;0.013011511847260238;-0.027337930706369917;0.0034516474017278753;-0.02336923408273428;0.005472835373492302;-0.058204100432527994;0.025190868661777444;-0.07222938608241236;0.01202367072398669
D_2min;-1.2;-0.027789191798262003;0.01209818923070749;-0.03518534705797194;0.01234417426107548;-0.027263751797937275;0.005537884752730982;-0.021745815395349588;0.011460960369161555;-0.01666152963977119;0.003187931577099512;-0.01109391112005298;0.005053403573954007;-0.038488839670112185;0.017044125229903173;-0.04744412188974323;0.008144077983507358
D_2min;-1.1;-0.010026107422645758;0.007861466298976438;-0.011318003528449694;0.009727351030633713;-0.011471044404306241;0.004838871702379066;-0.004383766353392993;0.009406972067414365;-0.005801051400776913;0.002789250127519516;0.0011213320273668614;0.00456579629810161;-0.01809622413346368;0.008606003241900417;-0.021837677532579036;0.004127179343465848
D_2min;-1.0;0.007870406631826476;0.003296487828697181;0.01259633759891976;0.006626864524312381;0.004593759897714378;0.0038829562712567878;0.01277298964136886;0.006849801845586256;0.005126487339849106;0.002255870076812272;0.0130114817995306;0.0038778849259761827;0.0027994305422680554;-8.227826111362191e-05;0.004356973371752559;-1.2432742919621376e-05
D_2min;-0.9;0.025766005158155636;-0.0015981290267568227;0.03638631354590416;0.003022127147517928;0.020801740034482208;0.0026553670761746417;0.029601414227369283;0.0037874619269997467;0.016031233462333816;0.0015687474415351232;0.02435157976411695;0.0028693289323689086;0.024102445985313636;-0.009012163693953745;0.031003653735840686;-0.004270181053586342
D_2min;-0.8;0.043416739332641896;-0.006704517127809062;0.0597690153285928;-0.0010520163100515845;0.03687186740088322;0.0011638187882212492;0.04585463606637319;0.00022628789940970506;0.026746179585048324;0.0007558402222347382;0.03479095405125854;0.0013747400750299121;0.045508697381714924;-0.01809702201832053;0.05770773070653057;-0.008618013016187476
D_2min;-0.7;0.060582895057996744;-0.011918318796536376;0.08246481716692244;-0.005569314777878809;0.0525318170144633;-0.0005878625862747455;0.061294887883818205;-0.00382591647788999;0.037109052375512874;-0.00016381168265677815;0.04397407245471996;-0.0007801795229607222;0.06673612087969616;-0.0272641721914324;0.08410003983230574;-0.013032269846547706
D_2min;-0.6;0.07722030797751511;-0.017156229782045784;0.10443353232520103;-0.010401105853920178;0.06770058265909107;-0.002531590371749104;0.07594083858795297;-0.008292519991648817;0.04704599343525828;-0.0011255853723639575;0.0522007784290448;-0.0033026165088481108;0.08753577070829976;-0.03633852654097325;0.10990162414440263;-0.0174524683398678
D_2min;-0.5;0.09331620427283127;-0.022293617743970984;0.12567891934283182;-0.015370515815635422;0.08231572897948425;-0.004572795992860534;0.08984901211187424;-0.013079021951750036;0.056490398774684536;-0.0020328743968383023;0.059934002798367914;-0.005770197270683397;0.10760815380403166;-0.04508651509179096;0.13478645106019904;-0.021798407263101005
D_2min;-0.4;0.10886715145155357;-0.027334892044996728;0.1461938190744414;-0.020410165373255573;0.0963700813638404;-0.00667172202283961;0.10309369603524754;-0.01811548118813544;0.06540967474307102;-0.0028738920483775132;0.06744028374588673;-0.007951904717955038;0.1268630626658176;-0.05341864996635515;0.15866063341341707;-0.02603595844204598
D_2min;-0.3;0.12389557848526245;-0.03229806794065482;0.16600254966664796;-0.025443457160157834;0.10988341951397551;-0.008782176779359219;0.115784665804056;-0.023322228954618218;0.0737832556768403;-0.0036350534963744963;0.07506388930123009;-0.009563882216952813;0.1452236822968498;-0.061240221109134296;0.18145198633070514;-0.030128949304530472
D_2min;-0.2;0.13827504905696397;-0.03696286462882803;0.18497321599694416;-0.030319361160700886;0.12267107417514467;-0.010830233861838678;0.12780587708354574;-0.028650987202480493;0.08148860861541607;-0.004211215906929411;0.08291925254961541;-0.010418200160124513;0.16231044707814668;-0.06832529793435338;0.20271371813789152;-0.03400098974291499
D_2min;-0.1;0.15184034845220218;-0.04110144922995573;0.20292217643287813;-0.03492173661593423;0.13451720828191327;-0.01276218242734295;0.13898409092634711;-0.03407552487455234;0.08839225880038448;-0.0045143670761831345;0.09094920529886252;-0.01045670504184848;0.1777646490511522;-0.07448373269612496;0.22201064224014644;-0.037587454517000296
D_2min;0.0;0.16451837768070465;-0.044533791523247324;0.2197913090618746;-0.03905374487989022;0.14528014562791647;-0.01447678529736951;0.14928990664333064;-0.03950909653836643;0.09438503001193865;-0.004422569592217762;0.09949811161926547;-0.009321961196500084;0.19118844401192803;-0.07945574835737901;0.23889083451530624;-0.0408013044418869
D_2min;0.1;0.17622203210648824;-0.04707452292062886;0.23550123691650704;-0.042538086005531106;0.15481055097037633;-0.01588393512552333;0.1586612332545867;-0.04488328294404198;0.09935524807782592;-0.0038195995480521105;0.10881746056570307;-0.006728300780796559;0.2022023400601327;-0.08299862368207656;0.2529175594873827;-0.043560789042545345
D_2min;0.2;0.1868755402854374;-0.04879823668081862;0.2499300893968872;-0.045461410566720595;0.1630799390138904;-0.017026449802544974;0.1670609542983188;-0.05019538570055193;0.10327629228375201;-0.002790378801432958;0.11865063587274705;-0.00287552105492761;0.21092205533057395;-0.08520591742539985;0.264200190450568;-0.045890463425013905
D_2min;0.3;0.19644585950285087;-0.04991901168539581;0.2629960150216819;-0.04796844928198407;0.1701323684220828;-0.017973231740223916;0.174527622969344;-0.05543466453994306;0.1061577463819301;-0.001478937321961027;0.12873899704910485;0.0019969981604095466;0.2176210630431239;-0.08626554828023547;0.2730332073637829;-0.04784512162581045
D_2min;0.4;0.2047807051015207;-0.05045548191595106;0.27446525781794406;-0.05022855623276623;0.1758873473566922;-0.018815934293006542;0.18085010965850046;-0.06069088370568476;0.1079527678009633;1.540951603207219e-05;0.13838546590169187;0.007359064796533588;0.22246731333676983;-0.08632928754280567;0.27955757098769674;-0.04946709538212701
D_2min;0.5;0.2117301708125412;-0.05045012653531966;0.28409941185194665;-0.05244808381681754;0.1802816887369545;-0.019664892437333492;0.18582072950557205;-0.066063062246287;0.10862978870468609;0.0015651802611946763;0.14681953900348077;0.012609825616587855;0.22569923537660053;-0.08559741728036396;0.2839920663174009;-0.05081411698745075
D_2min;0.6;0.2173399585074991;-0.05020279154707108;0.29194173425712133;-0.054651162887778604;0.18339903704781868;-0.02052172610525904;0.18960704816791463;-0.07146532297527042;0.10819016211830501;0.003089336668034015;0.15422941818050084;0.017860571705451633;0.22746566647725786;-0.08415334726647838;0.28651575791022665;-0.05190965871153619
D_2min;0.7;0.22165677028107833;-0.04999930623803728;0.29804422518166795;-0.056826803350972455;0.1853102397081159;-0.021370639745592612;0.1923588317127285;-0.07681386296187576;0.10661750438294249;0.004541327345457091;0.16085098711952917;0.023272837420201142;0.22784903108214039;-0.08203394412611065;0.2872335534717614;-0.05276267783730049
D_2min;0.8;0.22475144718680085;-0.050129325176087036;0.3024704641609315;-0.05905031313435671;0.1861453299527387;-0.02223733160441821;0.19430794061976542;-0.0820092208371408;0.10396464219966361;0.0057825836513289985;0.16685781391857546;0.028913758939818734;0.22712530342714032;-0.07940413146236391;0.2864733857892965;-0.05342237737456834
D_2min;0.9;0.22671066808781415;-0.05091101827425959;0.30530707741286545;-0.06138406136913588;0.18604689131611707;-0.023139942348363363;0.19570481104319093;-0.08694493624674493;0.10028808162816638;0.00668230355187216;0.17247970756849895;0.03489217023175506;0.22556417772109505;-0.07642098643610762;0.28455992139017994;-0.0539360075605666
D_2min;1.0;0.22734488263186492;-0.05226075933892993;0.30628087362161516;-0.06396487112201932;0.1848794091917565;-0.02415939073422635;0.19617551317355275;-0.09178594552321151;0.09549344064394027;0.007223253250900896;0.1768438888190058;0.04057879248006646;0.22321043378513572;-0.07315904307094545;0.2814806895267363;-0.0543216447474979
D_2min;1.1;0.22637728454426043;-0.05389225017470789;0.30499950990117775;-0.06697840828184365;0.18242740610034325;-0.025409242789363518;0.19516999571305416;-0.09677615873436629;0.08947218359168296;0.007394932126794984;0.1787026999128436;0.04507792979303371;0.22008748774392828;-0.06970177233496067;0.27717359674094055;-0.05459882859178666
D_2min;1.2;0.22368417939034746;-0.05587106669762143;0.30129308265314325;-0.07047584387497352;0.1785957780487628;-0.026922141533515465;0.19240286727793343;-0.10203514334947084;0.08213069769957748;0.0072313726080111;0.1775023070661632;0.04801030355555014;0.21615835948813356;-0.06605427740709668;0.2715519901347605;-0.05476615833697096
D_2min;1.3;0.21911946629020473;-0.05822945558734194;0.29496322456076207;-0.07451185865233612;0.1732650422912183;-0.028735102970176563;0.18752462662369584;-0.1077123195738583;0.07335261351722444;0.006783717736298378;0.1725855194403021;0.048928138032652946;0.211359433112845;-0.06220979788199266;0.26449179930871125;-0.05481838605055511
D_2min;1.4;0.21251808701570862;-0.060576916467910635;0.285758646331165;-0.07926713218607873;0.16633426318784572;-0.03094971222442755;0.18027953964682641;-0.11392073962199323;0.06317280047430529;0.0059553685470215;0.16314494470752727;0.04721073972868073;0.20585616511964133;-0.05832500121538775;0.25612882559894423;-0.0547988393933716
D_2min;1.5;0.20378990804719255;-0.06257623242457999;0.27352985641098115;-0.0848891648572021;0.1577710954658702;-0.03364427579053242;0.1705790747756044;-0.12069713669447957;0.051686002271523535;0.004629102396170204;0.1486928927359603;0.04245700582677259;0.1998503980256885;-0.054564958206005265;0.2466632150340864;-0.05475477720676025
D_2min;1.6;0.19270661860262095;-0.06382183217753301;0.2579375461818385;-0.0915966522938847;0.1474177207759162;-0.03694722364214176;0.15797791920376625;-0.1282527925444974;0.038829224524832284;0.0027402186969229803;0.12806442150553465;0.033794912468021465;0.19348041013758;-0.05108308592491895;0.23617741888137367;-0.05472778115102539
D_2min;1.7;0.17907183811840266;-0.06387281535288647;0.23868722459790526;-0.09958864533053369;0.13514088282804693;-0.04097447791425779;0.1421130145197722;-0.13675728911782326;0.024567752403340748;0.0002135954114557137;0.10025539969103114;0.020464275300475343;0.18689062054562733;-0.04803190148351533;0.2247726166495596;-0.0547595569129653
D_2min;1.8;0.16304936248832735;-0.06309875703687151;0.2160113178163794;-0.10874327297479436;0.12109028734214533;-0.04564797077434335;0.1232710639982173;-0.146068961947738;0.00896749892774551;-0.002929656358914734;0.0659392587031391;0.0029536371885372503;0.18008356396273228;-0.04538332337259732;0.2124932246039215;-0.05484454127295013
D_2min;1.9;0.14488342186080594;-0.062203134292998286;0.19026190214869576;-0.11885579813961034;0.10547547160637549;-0.05084209091264302;0.10182377110739793;-0.1560124116791739;-0.007971860823177579;-0.006610315647844978;0.02610951384865956;-0.017998701187135424;0.17299486537614328;-0.04304393496785508;0.19932738532200567;-0.05495926044753574
D_2min;2.0;0.12485537640062017;-0.06133764963736166;0.16183641781499336;-0.12972965162650052;0.08853481911495109;-0.056430127474725644;0.07841491616212082;-0.16625645815195078;-0.026045130386055604;-0.010869357477943709;-0.017890304587918848;-0.041438847728522354;0.16565788000996662;-0.04098808458122605;0.1854021836377271;-0.05509966021480217
D_2min;2.1;0.10330169572756098;-0.06073308761581231;0.13121267874630504;-0.1411226822691054;0.07055011356353269;-0.0622578835465033;0.05378524701642462;-0.17642516430612698;-0.045008937412127636;-0.015734572639034106;-0.06447190054807095;-0.06623267233765429;0.1580890594441975;-0.03916641629778628;0.17084135909581555;-0.05525585187027282
D_2min;2.2;0.08032571379483322;-0.06107030004931957;0.09853562592188148;-0.1529504784004132;0.05161486297773088;-0.06827774105309281;0.027915499505478003;-0.1865514600439644;-0.06513884126797898;-0.021097108646155327;-0.11346469225019007;-0.09223822640184665;0.1502299122579558;-0.03752163301058076;0.15559173800078518;-0.055412511898804695
D_2min;2.3;0.05598414309652444;-0.06287289987861389;0.06388086406520088;-0.16517189022710532;0.031781130818266945;-0.07446909157482473;0.0007109573014254522;-0.1967025219174694;-0.08676727426736797;-0.02686712556417703;-0.16490789953385665;-0.11947307434858079;0.14203967833047848;-0.03602193735486203;0.13960953523366726;-0.055560502507639775
D_2min;2.4;0.03045714241456743;-0.06695360209676071;0.027510202945519424;-0.17763144720238522;0.011206513981898425;-0.08074206004953677;-0.0277565164168303;-0.20687824455833326;-0.11000371832858846;-0.03288907798678764;-0.21833436201116108;-0.14756850568759994;0.13341920545075503;-0.03456249318028792;0.12281164491603391;-0.05567373762301475
D_2min;2.5;0.00391239921695874;-0.07412138892042996;-0.010333887904737438;-0.19018510451278736;-0.009963891928912005;-0.08701492348119544;-0.05745938011773788;-0.2171030745793452;-0.13501408821206873;-0.03900107220503912;-0.2733637208199582;-0.17621884982705804;0.12426592048043439;-0.03303921463836801;0.10510713626669776;-0.0557257885667104
D_2min;2.6;-0.023409965104757013;-0.0838413925754109;-0.049319597584553065;-0.20269350590108548;-0.031545412769292014;-0.09319694013737045;-0.08770559310393988;-0.22700461319093268;-0.16159609896857852;-0.04533343225381525;-0.32873353337292777;-0.20456263971585376;0.11466836417001858;-0.03148849120156161;0.08669191627622652;-0.05572819724762823
D_2min;2.7;-0.05121106615933613;-0.09513605502194977;-0.08903080016924747;-0.21498662986966544;-0.05330734845113483;-0.0991742485837408;-0.11753825499057946;-0.23606328635551854;-0.18923946408868275;-0.052092380991872744;-0.3827520351698137;-0.23144927283177186;0.10476595100489661;-0.029974072989213063;0.0678482461418124;-0.055701757326394485
D_2min;2.8;-0.07934664166153382;-0.10753023980262011;-0.12928261837490496;-0.22701035657022484;-0.07514842775912456;-0.10491235495033902;-0.14654274859735938;-0.2440541506233398;-0.2180823200705948;-0.059385635384638924;-0.4347331515161805;-0.25643515414558227;0.09464691057784869;-0.028552122842080863;0.04874089429584849;-0.055660055815890175
D_2min;2.9;-0.10766978993849463;-0.12039004868956749;-0.16988762655132916;-0.23871565992269694;-0.0969697825600715;-0.11037940713816763;-0.17424627932870163;-0.25071708986872476;-0.24824650396328352;-0.06735242574023204;-0.4839253414711351;-0.27903934101415384;0.08441768426401453;-0.027295033450151607;0.02956220338934301;-0.05562108934451615
D_2min;3.0;-0.13586823840132212;-0.1330069297188725;-0.21039466689974518;-0.24989755967867566;-0.11851140931819515;-0.11544344215786495;-0.1999044441157123;-0.255679331511093;-0.2788410887862973;-0.07605781623008667;-0.528844315201269;-0.2982257166290374;0.07414262641121105;-0.026196513036402358;0.010484457205725661;-0.055591588902912825
D_2min;3.1;-0.1636596560867165;-0.1449120475220731;-0.25039335077157254;-0.2603656478827947;-0.13953123784874144;-0.1199843612945104;-0.22297480931973634;-0.2586891923613672;-0.30900280951692416;-0.0854928155971546;-0.5683124385169105;-0.31316224816842464;0.06384880783445901;-0.02522307472682872;-0.0083849939636913;-0.05557113505034117
D_2min;3.2;-0.19069739363000693;-0.15513423513236813;-0.28938307327453394;-0.2698974949567905;-0.15975859682747817;-0.12385905779607231;-0.242484239100615;-0.2592389867451974;-0.3378879815574276;-0.09580789193058248;-0.6004963512782027;-0.32258373325190703;0.05362836751232081;-0.024395861951147957;-0.026812128927375056;-0.055573992140470985
D_2min;3.3;-0.21665385812354465;-0.16273452197883476;-0.32688713922596513;-0.2782831878663554;-0.17893226493668557;-0.12693292287502;-0.2575631019674507;-0.2568846490144212;-0.36457091676302866;-0.10712026314824907;-0.6237344296704528;-0.32534223833774245;0.04356333588548722;-0.023729120506585488;-0.04458796360069073;-0.05561395514365319
D_2min;3.4;-0.24155800951695205;-0.16803151694927987;-0.36296926556067355;-0.2855871570048043;-0.19708098661557116;-0.1292573692702872;-0.26863732908528615;-0.2518903598514175;-0.3895985516705167;-0.11930043152277037;-0.6387543676512113;-0.3219667705725229;0.03362696907596785;-0.02321558828187964;-0.06177054595777243;-0.055685614229942004
D_2min;3.5;-0.2655411544615305;-0.17168251389024647;-0.39784947792652403;-0.2919556156705587;-0.2143313550772259;-0.13094031209818713;-0.27641933439360944;-0.24466718899877105;-0.4141742993100568;-0.13219647193353268;-0.6468614896674545;-0.313401961429431;0.023767868633154166;-0.022858708062383215;-0.07847321197370505;-0.055781517177113216
D_2min;3.6;-0.2887044772204099;-0.17413068787910646;-0.43167856975132857;-0.2974961550865052;-0.23073555803265222;-0.13206070329856345;-0.28175753893830713;-0.23574097097326074;-0.4383618826248714;-0.14550520416261392;-0.6494676637870356;-0.3006376652175371;0.013922828761065986;-0.022619741308103514;-0.09485517588052694;-0.05589472500974768
D_2min;3.7;-0.3111989431972777;-0.17597752809823497;-0.46468280769368064;-0.30235505319966727;-0.24638657724008084;-0.13272386794622726;-0.2856858766168857;-0.2257402424748456;-0.46236940134862614;-0.15899739608142305;-0.6483258778897714;-0.2849033100615621;0.0040131517921135895;-0.02245503280591965;-0.11111404286901028;-0.05601505712674815
D_2min;3.8;-0.33305135801654373;-0.17752003784336612;-0.4969178388343316;-0.3065970357850407;-0.26136038213278745;-0.13298680257398043;-0.28835596193071567;-0.21475213066536103;-0.4874533010220947;-0.172849452065023;-0.6437983238903602;-0.2665015450440045;-0.005983384812344283;-0.022404185967046075;-0.1272573653395881;-0.05614866535230956
D_2min;3.9;-0.35424710642580237;-0.17884922098176315;-0.5283675929893636;-0.3102512529595334;-0.27569731566764766;-0.13288250843303562;-0.28975451469104296;-0.20277709235147157;-0.5145922831593257;-0.18633893812930769;-0.6359475511938282;-0.2455252982209135;-0.01607666687382192;-0.022513023603432103;-0.14326226758894833;-0.05630819706916412
D_2min;4.0;-0.37488310004400205;-0.18048304364828294;-0.5592108666487281;-0.31344723665565777;-0.2895398450413218;-0.132511588160364;-0.29027695906945095;-0.19002915088069283;-0.5453083366543279;-0.1992396927017488;-0.625608521665729;-0.22261461937617;-0.02629814993926516;-0.02281423254027448;-0.1591717016068177;-0.05648903956761142
D_2min;4.1;-0.3950529250315;-0.18291563470150596;-0.5896162778274157;-0.316309345539584;-0.3030333465756243;-0.13197200906601925;-0.29026456492262387;-0.17669048659851416;-0.581138943529897;-0.2150128201322774;-0.6135344110246521;-0.19835552961222103;-0.036680032645374894;-0.02334743362874292;-0.1750222940540258;-0.056689704606786684
D_2min;4.2;-0.41480776087623816;-0.1860489305171953;-0.6196179541664666;-0.3188899109686014;-0.31615859588417017;-0.1313032734811399;-0.2904331743927768;-0.16324601949814443;-0.6208884459541242;-0.23238075360956323;-0.6008581868394991;-0.17353309480876788;-0.04726877713665267;-0.024071892456476895;-0.19095679676700428;-0.056920700207244046
D_2min;4.3;-0.43420647626438225;-0.189661090570854;-0.6492557114949857;-0.3212440741491598;-0.3288619752655588;-0.13054258748370184;-0.29172820604670324;-0.15033534856326458;-0.6624636637410166;-0.2359266897102712;-0.5890346004624014;-0.14913662273192063;-0.05811244323313325;-0.02491048422375375;-0.20716068352587236;-0.057186871826067076
D_2min;4.4;-0.45324953700641935;-0.19354035079473864;-0.6784645747479825;-0.3233709776362055;-0.34111122741902733;-0.12969818709356318;-0.2944867449802331;-0.13822180263620165;-0.7048651487574755;-0.2578064770661337;-0.5785732334950513;-0.1255275420772417;-0.06925904601132338;-0.0258574018460207;-0.223727810325558;-0.057514309529437035
D_2min;4.5;-0.47193277148803325;-0.19739848251899872;-0.7071622746983124;-0.325260317689831;-0.35285724271320085;-0.12877083868733763;-0.299067632340388;-0.1271911242489523;-0.7467809065311499;-0.2673063461135392;-0.5699983542169669;-0.10307155312408156;-0.0807557912991772;-0.026899346147830627;-0.2407600153121816;-0.05793184293764497
D_2min;4.6;-0.49033487865520264;-0.20120337302315505;-0.7354858162487208;-0.3270201362648413;-0.36411464800550775;-0.12783424688803624;-0.3063605176629638;-0.1178106535514889;-0.7867278931045085;-0.27745454429601857;-0.5647786472029601;-0.08279328243174255;-0.09262082086867451;-0.027962903195401623;-0.2583861058083805;-0.05841760033143206
D_2min;4.7;-0.5085298655285122;-0.2050218108707309;-0.7635837410680573;-0.32876418978805244;-0.37492978739757454;-0.12696871248820418;-0.3170958104574444;-0.11053491790883108;-0.8237436803337044;-0.28660357867457087;-0.5641705619879449;-0.06558535186909786;-0.10486617024031197;-0.028993515317613294;-0.276697788435186;-0.05894541186434843
D_2min;4.8;-0.5266203452287783;-0.20874419719791604;-0.7915984452259934;-0.33060169400754624;-0.38529646371015325;-0.12624496675756447;-0.3323555316790916;-0.10606683731189648;-0.8557850901319775;-0.2944572844477662;-0.5699278611569625;-0.052656099367800024;-0.11751204888546773;-0.029896237887381716;-0.2958682735332445;-0.05950232387135923
D_2min;4.9;-0.5446921659584429;-0.21226499666177823;-0.8196651238226149;-0.3326378539932193;-0.39521031260766293;-0.12573137781670418;-0.3531196275165289;-0.10504124245139135;-0.8809003616568258;-0.29969223918720367;-0.5836482713503504;-0.04511105724209408;-0.13056508224622831;-0.030576907822818633;-0.31603966946890694;-0.06006861760630677
D_2min;5.0;-0.5626943240422424;-0.2156174137601088;-0.847674340644943;-0.3348440052658006;-0.4047266323337322;-0.12542901932293926;-0.37892575742245604;-0.10719513742496645;-0.8998584116013664;-0.3026474332091844;-0.6046802841818586;-0.04255917505116358;-0.14405347423222992;-0.031112611474870988;-0.3371537107743947;-0.060671580184236795
D_2min;5.1;-0.5805501226577796;-0.21886048776340772;-0.875438831177556;-0.33714744012954867;-0.4139099363592216;-0.1253146997720691;-0.4089553079675152;-0.112054641591393;-0.9141289855199979;-0.3040039507554333;-0.631810471072983;-0.044232670190540446;-0.15801550463487501;-0.03162767792192955;-0.35911668054185064;-0.06136419877815147
D_2min;5.2;-0.5981255625854498;-0.2220264884679457;-0.902818518538858;-0.33950443595341895;-0.4228124761797041;-0.12538021014437373;-0.44233643689731483;-0.11907913325302566;-0.9248287795166856;-0.3040374877673049;-0.6637490121345291;-0.04931866003235541;-0.1724169242851996;-0.03219559440028075;-0.3817318527496223;-0.062137106006616705
D_2min;5.3;-0.6152692586917379;-0.225168264285883;-0.929642627144851;-0.3418537556754542;-0.43149672852410603;-0.1256083987997112;-0.4779915679644944;-0.12759912277560925;-0.9334298228005196;-0.3031504190617653;-0.6988890559171708;-0.056793114083868446;-0.18722522282554976;-0.032913285167281536;-0.40477325661061414;-0.06298639985993226
D_2min;5.4;-0.631980332153713;-0.22831996841538782;-0.9558005002347016;-0.3441595937327939;-0.4399970291703621;-0.1259894495784213;-0.515665969079377;-0.1375114937590025;-0.9405250181260669;-0.30146591341515716;-0.7369011990028955;-0.06647394378228189;-0.20245986239267388;-0.03384041147876271;-0.42823801685958074;-0.0639729967688254
D_2min;5.5;-0.648262076333074;-0.23147691071987442;-0.9812113032731933;-0.3464020108183208;-0.4483254065593538;-0.12651863460184298;-0.5552799851481351;-0.14882227257714842;-0.9462547497167204;-0.2989964136046037;-0.7777226335293008;-0.0783546726356521;-0.21811145433030177;-0.03499793324221745;-0.45212425418809943;-0.06514305786578323
D_2min;5.6;-0.6641133144079951;-0.2347061541721258;-1.005716338740001;-0.3485164350395591;-0.45654837352449107;-0.12717363971066398;-0.5962909186341498;-0.16125230529604817;-0.9517464296901608;-0.29600130190993923;-0.8205876148541087;-0.09195973707064997;-0.23424397652143902;-0.036505606581563654;-0.47643193104726045;-0.06658093007608645
D_2min;5.7;-0.6795369717977398;-0.23807134088441106;-1.0291622780845575;-0.3504399442907138;-0.4647236276152711;-0.1279308875907894;-0.6382037589035585;-0.17455541747942238;-0.9580493070128497;-0.2927092495297643;-0.8648028112841697;-0.10686118625249552;-0.25090799415614207;-0.03847114440935062;-0.5011601776814825;-0.06837197329700562
D_2min;5.8;-0.6943412099628201;-0.2414505409719343;-1.0514565912209761;-0.35215347373164363;-0.4728291421750903;-0.12878251672540486;-0.680288132191678;-0.1882652783103067;-0.9651732803814657;-0.2893205848290652;-0.9092722344376369;-0.12236636896492747;-0.26793776928593793;-0.040856535144927264;-0.5260049296329399;-0.07043673466994882
D_2min;5.9;-0.7082808569727792;-0.24471438791449618;-1.0725113489183862;-0.35364291524948666;-0.4808441119255171;-0.12972450853500206;-0.7216190377885088;-0.201769036897808;-0.9730054493454805;-0.28610844792400414;-0.9525960266340956;-0.13758043999124414;-0.2851402114436983;-0.04361568321529674;-0.5505852300910927;-0.07265549255219561
D_2min;6.0;-0.721203229583752;-0.2478044630562417;-1.092282077701622;-0.3549111506895688;-0.488708459161332;-0.13075282443631675;-0.7618454933565229;-0.21485242583538966;-0.9811399233206242;-0.283075425098847;-0.9942630778169352;-0.15220214362559048;-0.302297776319989;-0.04664748486741388;-0.574625017780324;-0.07495790665272217
D_2min;6.1;-0.7329327340612917;-0.25035431178887624;-1.110733031531165;-0.3559661628288726;-0.4963457735713561;-0.13186342678787177;-0.8006013690522265;-0.22728451115179382;-0.9890195772760695;-0.2802077231697311;-1.0337342292594496;-0.1659088334007679;-0.31915874346160145;-0.04982740628253346;-0.597809220158851;-0.07725053627648837
D_2min;6.2;-0.7433421306358241;-0.2522308485588667;-1.127757664535526;-0.3567754211437295;-0.5038223937870594;-0.13305256011757471;-0.8369574148797652;-0.23847162074249262;-0.99702830641953;-0.2779045173413621;-1.0696471858778231;-0.17782475626590433;-0.3357078096922841;-0.05323335827645348;-0.6199468446530165;-0.07949793775535952
D_2min;6.3;-0.7523687256942537;-0.25447339616450293;-1.143253374376691;-0.35730405720555236;-0.5112280197874846;-0.1343170305934258;-0.8701190639780023;-0.2479213532009208;-1.005707918104413;-0.27654666362611735;-1.1008638742300576;-0.18722405467281078;-0.3519866608332318;-0.056974942233289916;-0.6409385650125987;-0.08171005253471542
D_2min;6.4;-0.7597931456694553;-0.25664787932146105;-1.1571040455449015;-0.3575167640790067;-0.5185751605083375;-0.13564260946164186;-0.8989539127187616;-0.25489456376539366;-1.0152914380308005;-0.2765407426065636;-1.125686937677301;-0.19299423226997625;-0.36787459436629355;-0.061074156488536424;-0.6604504633398953;-0.08377763672005223
D_2min;6.5;-0.7654398787537833;-0.25405737763708736;-1.1692075165355753;-0.3573831939583041;-0.5258971179433445;-0.1370199199541613;-0.922425656340895;-0.25871751510014285;-1.0260298642157668;-0.27828799569789453;-1.1425843900406196;-0.19413029758166367;-0.38329707393676316;-0.06557631843396816;-0.6782138912561742;-0.08560966928150204
D_2min;6.6;-0.7693764238678966;-0.25665394110346984;-1.1795741887871571;-0.3569178310799215;-0.5331600686150768;-0.13844677264951866;-0.9408961639138109;-0.25968427393113114;-1.0377017485073328;-0.2815607883815403;-1.1521952686254728;-0.19109348350051114;-0.3981462048306028;-0.07041331919232174;-0.6942357065367091;-0.08726688439685404
D_2min;6.7;-0.7716787807701841;-0.2551681881047845;-1.1882387424402214;-0.35614554744929183;-0.5402590457135741;-0.13991304025077334;-0.9550523115720617;-0.25831330485386417;-1.0498560496139397;-0.28591305419107194;-1.155645594999033;-0.18466404078024734;-0.41221534320986564;-0.07543192450670144;-0.7085034808861721;-0.08880219351893537
D_2min;6.8;-0.7726199083233194;-0.25387423271364096;-1.195270066592224;-0.35510352276960333;-0.5472799032581239;-0.14144485015149666;-0.9656626456624338;-0.25517382237673303;-1.0623810303082415;-0.29113697538797645;-1.1542824540046173;-0.17576947917188868;-0.42564590820081527;-0.08069549339501325;-0.7213448912972993;-0.09036914800037543
D_2min;6.9;-0.7725099801790449;-0.252553540588619;-1.2007551185663576;-0.3538351808323412;-0.5543001058893964;-0.1430690525171956;-0.9736937576392002;-0.2509712229373653;-1.0751031802611681;-0.2969376544834592;-1.14975897871847;-0.165544419710959;-0.43857724298950274;-0.08625285489242085;-0.7331295912163185;-0.09214793750049566
D_2min;7.0;-0.7712221048906223;-0.25120578901564894;-1.2046725867927783;-0.35234245060124714;-0.5611190060724578;-0.144747250327959;-0.9792065660843461;-0.2457926325510913;-1.087612718196608;-0.3029964283116531;-1.1421997684051988;-0.15405562348366253;-0.45063125832987794;-0.09188264682068947;-0.7435586713293816;-0.09401676030362704
D_2min;7.1;-0.7686106949754095;-0.24948862653917114;-1.2069944551082248;-0.35062517940676674;-0.5675538202915398;-0.14644258823030576;-0.9820781946459354;-0.2395946480452098;-1.0995644699818587;-0.3091004263760446;-1.1314591852378033;-0.1411721903207983;-0.46146411375020335;-0.09739622879958088;-0.7523252404877567;-0.09581254330255273
D_2min;7.2;-0.7645676030152391;-0.24741166360688993;-1.2077219824757908;-0.34869052741400175;-0.5733593528151655;-0.14811125086988763;-0.9826719987088666;-0.23267097337223852;-1.1103672417947443;-0.31474190773140265;-1.1180866340372546;-0.12727274737125427;-0.4706172527731951;-0.10249997852834003;-0.7591187532927375;-0.09748309025089696
D_2min;7.3;-0.7589606625528642;-0.24503049993355397;-1.2068523164729363;-0.3465440474363639;-0.5782732722088948;-0.14970530454995412;-0.9812831076825175;-0.2252676280597914;-1.1194288887730774;-0.3194202552324672;-1.1025274338328135;-0.11265416405663053;-0.4776116525796539;-0.10689101069089446;-0.7635971939978514;-0.09894590071252996
D_2min;7.4;-0.7521686982939197;-0.24254294922429853;-1.2044928525938854;-0.34423883577414305;-0.5825177277491438;-0.15127802663943157;-0.9785210371940254;-0.21782217473742893;-1.1268183482878502;-0.32321787236801214;-1.0859707759097699;-0.09808755469868125;-0.4828694374158431;-0.11081476966939441;-0.7663107017067396;-0.10031639589120012
D_2min;7.5;-0.7447504223263746;-0.24025253006487102;-1.2007963494833014;-0.34184407635162195;-0.5864621707167572;-0.15291479262210128;-0.9752483397548559;-0.21093746472246444;-1.132736491617024;-0.32631693745480383;-1.0700486874336423;-0.0846661831174309;-0.4870706912473999;-0.11466218151467711;-0.7680959060121566;-0.1018502368458174
D_2min;7.6;-0.7369320432013051;-0.23830149252485544;-1.1958250883981272;-0.3393965796496783;-0.5902424111939801;-0.15464561836674662;-0.9715978564879748;-0.20472678677148437;-1.1373269245437694;-0.32887818738997865;-1.055220923993602;-0.07261677041316705;-0.4905186253672955;-0.11863363841244734;-0.7693027809792667;-0.10349762080575164
D_2min;7.7;-0.7289925672497191;-0.23685333121222651;-1.1896555584388349;-0.3369388396155344;-0.5940462422026673;-0.15651105643469787;-0.9677223880509453;-0.1993111442621105;-1.1408126283274367;-0.33114170686994626;-1.042001335267182;-0.062190660093751404;-0.4936197287462285;-0.12299228495541303;-0.770378669445769;-0.1052108825779916
D_2min;7.8;-0.7213078206821191;-0.2361246479996213;-1.182412611627516;-0.33451774374816967;-0.5980524842751009;-0.1585564082173656;-0.9645482004692276;-0.19533981539807943;-1.143022430526992;-0.3329457428853999;-1.0319374923095932;-0.05451691572109496;-0.49665194505122123;-0.1278671345364648;-0.7717944037578235;-0.10735593820353984
D_2min;7.9;-0.7141068836863251;-0.2362541444220767;-1.1741867491622386;-0.332163667663794;-0.6023127174324223;-0.1607987398419608;-0.9628429799343943;-0.19335932709794879;-1.1436494185267936;-0.333990878503867;-1.0262630960602195;-0.050527636280251365;-0.4996561354884719;-0.13324684120704422;-0.7737714640966491;-0.1102653769992088
D_2min;8.0;-0.7079494069703376;-0.23755281143288443;-1.1651590744286864;-0.32994777925681706;-0.6071583762359829;-0.16331702415841498;-0.96375546902485;-0.19415126926118997;-1.1427042736992892;-0.33431214315132607;-1.0269305881832924;-0.05157310966721074;-0.5032222062663703;-0.13943942406644894;-0.7771050923185552;-0.11427556622091029
D_2min;8.1;-0.7033257854410753;-0.2402920714630543;-1.1554937379638428;-0.3279308583498963;-0.6128700739916066;-0.16617730053273938;-0.9683574899289118;-0.19844395428090067;-1.1401454396848205;-0.3338997066618532;-1.0357139779255515;-0.05890708302008285;-0.5078295253632561;-0.14668710807092378;-0.7824687271196282;-0.11974199727447843
D_2min;8.2;-0.699902304135632;-0.24430796031176882;-1.1451176288065223;-0.3260876972177851;-0.6191374947590003;-0.16930618175934598;-0.9759171859138593;-0.2057711876510382;-1.1358174601532962;-0.3325995394793022;-1.0515225706695954;-0.0716942443827655;-0.5129972921639361;-0.15474548501784202;-0.7893190087746955;-0.12634349350439944
D_2min;8.3;-0.6971927936922562;-0.2493549120336409;-1.1339163317756196;-0.3243825976768058;-0.625555420016287;-0.17260636131877582;-0.9852468940181156;-0.21535327581644914;-1.1296591843547894;-0.33036891364934284;-1.072577942648243;-0.08852701425123755;-0.5181417906361023;-0.1633338599056824;-0.7969297116147036;-0.13346011160479954
D_2min;8.4;-0.6945659654613969;-0.25510014466119113;-1.1217370174830972;-0.322742597641442;-0.6315963113621734;-0.17594932047935785;-0.995327262393018;-0.22653153648517144;-1.1212418104548814;-0.3268206704685479;-1.0970770330913115;-0.108231285834135;-0.5222749183435642;-0.17190504649598193;-0.8042133807443026;-0.1409314406114177
D_2min;8.5;-0.6912739426620682;-0.2611481996537304;-1.1083951190391748;-0.32108230269508553;-0.6366480923321891;-0.1791871591169354;-1.0048833958917056;-0.23847742512520576;-1.110120242707918;-0.3215273464608046;-1.1228131845820482;-0.12934593377817816;-0.5242728922997504;-0.1798413251986144;-0.8099107781584252;-0.14851926276544525
D_2min;8.6;-0.6872667992325479;-0.2674767052953264;-1.093917425250181;-0.31942426968941984;-0.6406507827734274;-0.18229953452541725;-1.013492608272573;-0.25088042730974447;-1.096531648131382;-0.3148464705642109;-1.1492307817257341;-0.1511934638887542;-0.5242186233022093;-0.18722540965185175;-0.8140289156805007;-0.15555491692873336
D_2min;8.7;-0.682615057028686;-0.2741208744124286;-1.0783699049013489;-0.31780152087678015;-0.6436438158569473;-0.1852863346854745;-1.0210472368776777;-0.2636261960123445;-1.0807346278151577;-0.3072249140038661;-1.1761897594424138;-0.1734096260647;-0.5223348717237695;-0.1942058415634298;-0.8167461998676462;-0.16149974387397847
D_2min;8.8;-0.6771076963391742;-0.28097776983252487;-1.061731119808515;-0.3162234567605955;-0.6454388796269317;-0.18810382286399463;-1.0266092033344982;-0.2760759481459978;-1.0629990284578863;-0.29888567276153744;-1.2024853898941537;-0.19483489532842402;-0.5185576982849653;-0.20080178403363558;-0.8178642951615984;-0.16556597944414264
D_2min;8.9;-0.6705895520217435;-0.2879701459985782;-1.044000413010549;-0.3147069715940676;-0.6458982033953689;-0.19071868239464518;-1.029337823943699;-0.28764597953279214;-1.043647168465446;-0.29010421673173603;-1.2270521969415569;-0.21438121934659193;-0.512917293648858;-0.20708154652284438;-0.8172813794160287;-0.16689476284926208
D_2min;9.0;-0.6625468048854746;-0.2947979286608762;-1.0250763638193554;-0.31317175607160497;-0.6446220827255758;-0.19302129484001984;-1.0288333011868733;-0.29804858435542236;-1.022143674469504;-0.28057132469858104;-1.248660062305321;-0.23146231648844307;-0.5044630193379334;-0.2124695144613451;-0.8139969018948463;-0.16587330179280269
D_2min;9.1;-0.6522564930093608;-0.30104629604842614;-1.0047927565926678;-0.31149738011406836;-0.6410385100856608;-0.1948642574755537;-1.0245216392772916;-0.3069044173123583;-0.9976577259007939;-0.2695551747170146;-1.2656888883247586;-0.24548697632905547;-0.4918199842002675;-0.21613978067357742;-0.8065922505630425;-0.16322996609641205
D_2min;9.2;-0.6395370626833667;-0.3065784695146716;-0.9831621931835901;-0.30964894887966743;-0.6350275580146967;-0.19619679254957934;-1.0166121633158962;-0.314291029837368;-0.9698994905109561;-0.25699776858593015;-1.277828830673517;-0.25638744239168787;-0.4745574846984759;-0.21779481064090778;-0.794624938628651;-0.15892337033599357
D_2min;9.3;-0.624190971793281;-0.3112422324053954;-0.9601954428239363;-0.3075830489531599;-0.6264663763556477;-0.1969643705221058;-1.0054352000294156;-0.32035623661119583;-0.9385066883785438;-0.24291763648945608;-1.2848163632804965;-0.2641040114880111;-0.4521754509136464;-0.21707445938769254;-0.7775925378041357;-0.1532177445214371
D_2min;9.4;-0.6055217965828437;-0.31466201724560694;-0.9357225827962896;-0.3052060068024929;-0.6147539478643829;-0.19703875403668292;-0.9897212991173499;-0.3243145018935234;-0.9029446349583008;-0.22614434127309124;-1.2846810554398704;-0.2678286659593221;-0.42354763569005094;-0.2133696459736516;-0.7542804517298887;-0.14629975560415076
D_2min;9.5;-0.5829688267374156;-0.31654149805817067;-0.909614446530842;-0.3024544013015751;-0.5993828015171587;-0.196320976957443;-0.9681215166503501;-0.3253356754562384;-0.8629109378895912;-0.2055312935068807;-1.2756325612072352;-0.26651152646761833;-0.38785779514052443;-0.20622610150694332;-0.7237753100298061;-0.1379733508497223
D_2min;9.6;-0.5557088646449255;-0.316416865847585;-0.8816705451684417;-0.2992000838639113;-0.5796997591225743;-0.1946561214530922;-0.9396489254515785;-0.322771771294585;-0.817654707264623;-0.18063208207238368;-1.2555670054779036;-0.2587766719824538;-0.3436829365511862;-0.19475299725815187;-0.6845655604268988;-0.1298609770825978
D_2min;9.7;-0.5229841355073273;-0.31386513650529846;-0.8517072477111789;-0.29532889556799446;-0.5550872340734454;-0.1919044230093645;-0.9032707868504923;-0.3159547458587264;-0.7665174759645232;-0.15070753359092315;-1.2224912466241005;-0.24395558629179082;-0.2897397746999584;-0.17825795428259905;-0.6352841458845813;-0.12318139845220966
D_2min;9.8;-0.48531486063685314;-0.3091270156676309;-0.8199626957058754;-0.2909349669936425;-0.5259677323406926;-0.18815577673420414;-0.8595888399601828;-0.30519400773123895;-0.7101255693000255;-0.11636305627855315;-1.1774719315318105;-0.2211561772782238;-0.2269881534329965;-0.15706732150088154;-0.5768840784608411;-0.11690795952294675
D_2min;9.9;-0.44357650124319825;-0.30261019291306734;-0.7868006776662835;-0.28616000605260794;-0.49310083741712774;-0.18355886052183923;-0.8100671376032498;-0.2912800111267364;-0.6494032340557876;-0.0793095095289269;-1.122558980281699;-0.1903625963696527;-0.15695814613546588;-0.13186474413375127;-0.5109121162895285;-0.11029103896026449
D_2min;10.0;-0.39850878044295435;-0.294711054113602;-0.7525040394250357;-0.28115330355254464;-0.4569847791111883;-0.17825702657069975;-0.754881735204699;-0.274317888467829;-0.585317331712119;-0.03816153006169376;-1.0591167411150888;-0.15551985927285017;-0.081111662619886;-0.10403327061507373;-0.4388466614979265;-0.09973977944694834
D_2min;10.1;-0.35103446323329024;-0.2859204643253195;-0.7174157409909991;-0.2760936500865556;-0.41826388986604;-0.172428700841877;-0.6943827479170874;-0.25452323567575874;-0.5190233345839061;0.00800332451917285;-0.9889314111812944;-0.11698201678795783;-0.0012353264869613412;-0.07472084348299557;-0.36250107217631466;-0.08178880381898868
D_2min;10.2;-0.3016151185259446;-0.2763913200187087;-0.6817790099523204;-0.2710319704712125;-0.3774798117977589;-0.1661387373648795;-0.6304780484666814;-0.2328545243640887;-0.4509335577314939;0.05599878329042873;-0.9133356838150135;-0.07778007533672504;0.08196193877453517;-0.044769025398515794;-0.28257423802325654;-0.058977389386660306
D_2min;10.3;-0.25052900895060404;-0.26618387669908916;-0.6457714399324885;-0.26598821133305517;-0.33502566850329885;-0.1594196849353544;-0.5649293624974021;-0.21017092044459496;-0.3812723303685619;0.10365439884897665;-0.8332515100484432;-0.04680527907647836;0.1680925950234915;-0.01474610727591319;-0.19943951386258618;-0.03295332118522332
D_2min;10.4;-0.19854802729356535;-0.25559955757613384;-0.6097476024941244;-0.2610590626865248;-0.2916961375801552;-0.15239793098576726;-0.49979108354182245;-0.18756082902974391;-0.31074203573784587;0.1460013559220954;-0.7507138321424236;-0.006766885299716918;0.2559264116306075;0.017456627545116454;-0.11432873176185332;-0.007232127716113368
D_2min;10.5;-0.14640664760964484;-0.2449142318301476;-0.5740501579351402;-0.2563303794394729;-0.24827633535834615;-0.14519211597442716;-0.43726148629368566;-0.16617898467268954;-0.23998939247315043;0.17601197931004275;-0.6677236370513793;0.060991847885360606;0.34431563089642925;0.051250753053063924;-0.028391148687113343;0.010102391487111007
D_2min;10.6;-0.09452300484972653;-0.23439394969866;-0.5388181401070984;-0.2519069043176918;-0.2049195272754396;-0.13790391102210808;-0.3767267307467739;-0.14568452742678328;-0.1697083148503058;0.19866553705913237;-0.5847945630945777;0.13648064398608373;0.4322945642564262;0.08588358615649394;0.057375354464511474;0.025332865198580024
D_2min;10.7;-0.043353446020047315;-0.22437152076460354;-0.5041764492709948;-0.24792339229985672;-0.1616650805697475;-0.13066155705622862;-0.31641372453053673;-0.12516123595554873;-0.10075277287882933;0.22574857003316406;-0.5021974934721172;0.20872024561698588;0.5187091059354705;0.12780724222496342;0.14177354178998236;0.059261597324037574
D_2min;10.8;0.006976184080906833;-0.21493102292141408;-0.47017431480670346;-0.244416328657576;-0.11854333999884403;-0.12350281348076386;-0.25641337063443537;-0.10457223552408212;-0.033445234535008694;0.2551110310140867;-0.4200309493415819;0.2574150971687157;0.6031840030546594;0.16508076636881963;0.22441028455043188;0.10404008954847388
D_2min;10.9;0.05639349902845936;-0.2061448404407935;-0.4368299226157806;-0.2414191014206013;-0.07550617585278907;-0.11645983853580599;-0.19655389873962115;-0.08373743305431791;0.03191409733432238;0.27765811066869883;-0.33820964455021674;0.24848888658998458;0.6854036968208561;0.17345420956917668;0.30494640620645264;0.12477009033480169
D_2min;11.0;0.10416141316605021;-0.19842678731045904;-0.40440750041111606;-0.23908717805952318;-0.03289121692796293;-0.10971822443297086;-0.13508693996007182;-0.06183474194913874;0.09431435547182687;0.30999581926845465;-0.25767063715309213;0.25130551913952015;0.7638570152864892;0.17636138940582402;0.3818461703866092;0.15649891822691675
D_2min;11.1;0.1495172180027282;-0.19216209695740538;-0.3732049440291032;-0.23756082184529248;0.008853424460223636;-0.10346235325931374;-0.07074693681225863;-0.038372796303386636;0.152808014388512;0.36051994885160177;-0.17955877839727918;0.31016231249815807;0.8370820196294568;0.21255642252291107;0.4536369563746625;0.2700197145596981
D_2min;11.2;0.19176075901567025;-0.18779520952818185;-0.34343265396434575;-0.23700606199288465;0.049510071085768104;-0.09787528526617972;-0.0014262034429224357;-0.012437398259541155;0.2063427356358396;0.4425904535109524;-0.10462863355668084;0.5061094378145734;0.9035407619974691;0.2564760315037251;0.5187259503707509;0.395798276155932
D_2min;11.3;0.23019934936980313;-0.18574811436416017;-0.3153107265902495;-0.23758016544830962;0.08884176570145819;-0.09314042217920537;0.0750371339778626;0.01746647656649003;0.25390615826547425;0.46087474225193414;-0.03362203933650321;0.5450091194547948;0.9617457903252529;0.26905457432535496;0.5755818939324158;0.40078313201802906
D_2min;11.4;0.2648943966186579;-0.18585937366343241;-0.28890025432233557;-0.23921191946100429;0.12660039528921274;-0.08923245646401945;0.1564509939921086;0.050430382022017994;0.2957011752344876;0.4536470575563989;0.03310603700537307;0.5458300597220846;1.0120011368257984;0.26463809034868646;0.6245393954506904;0.40221410375718225
D_2min;11.5;0.2961965327496232;-0.18778737428472692;-0.26416695264303947;-0.2417578048014679;0.16260333295029916;-0.08604622163724684;0.2390882146947657;0.08261127806107016;0.3323309913169439;0.44841169661999736;0.09540103787989551;0.5786276680814728;1.0552202268614561;0.2655203552043943;0.6665429389396529;0.3783533970099979
D_2min;11.6;0.32414860012472246;-0.19130049139742678;-0.24124087723902043;-0.2451231547518935;0.19650148515452415;-0.08357111700771735;0.32125898065748704;0.11375472237137618;0.3640985209879837;0.4454119049692675;0.15293837011304667;0.6281273581804632;1.0918198502301308;0.2672927510233958;0.7020973084671196;0.36290063732263
D_2min;11.7;0.34889914118667953;-0.19608509156775966;-0.22022847316502236;-0.24918047807582067;0.22795393855438206;-0.08176831431417853;0.4008157448959109;0.15193698135063372;0.3914807949278032;0.44231590471274274;0.20547508085085298;0.6671545960171628;1.1224707216709344;0.2639534647833415;0.7319709829584129;0.35007206294585824
D_2min;11.8;0.3707067777433126;-0.20195969767294564;-0.20103775362481713;-0.2538415507915479;0.2569085828422608;-0.08055386252132735;0.47469215142155363;0.17607131748712135;0.4148248541613473;0.4400879210371551;0.25285759836507715;0.7005365247854112;1.1477301999307503;0.25764030995550335;0.756677162839761;0.3425136159944495
D_2min;11.9;0.3897335626029754;-0.20882199379016075;-0.18359364938815226;-0.2590495756324742;0.2833333325725089;-0.07987368473234735;0.5406281635503092;0.20378394303554526;0.4343174453153651;0.437408294442692;0.29493815194472894;0.7324682304945895;1.1679218413093224;0.24997410632551276;0.7764852737666361;0.33533493731930886
D_2min;12.0;0.40645014439627136;-0.21634603774440642;-0.16774169997683686;-0.26465735985466754;0.3072443871041539;-0.0795871844312721;0.5948901443932435;0.22523523094443298;0.4506191351117952;0.43272935827035486;0.3317904208272946;0.7571502043513414;1.1840687282080014;0.24074675175263494;0.7923812168393658;0.3271925053065772
D_2min;12.1;0.4213380796750883;-0.2242158985499474;-0.1533093178129672;-0.27052036390908274;0.328691979103926;-0.07955050040272393;0.6338412508410434;0.23964259668978016;0.46438791924714096;0.42439342160928284;0.36353081264290843;0.769188148699925;1.1971935544090195;0.2298178069326342;0.8053389333919476;0.31692539407348175
D_2min;12.2;0.434212821843337;-0.23234441298581743;-0.1405004964938641;-0.27660563491419765;0.34738345884710853;-0.07983796827921807;0.6588433897534625;0.24745878117417064;0.47561064355038773;0.4131857756300823;0.3900747821345707;0.7704874841704203;1.207239711048409;0.2174943670868883;0.8154045631253632;0.30520133024685414
D_2min;12.3;0.4447466742301245;-0.24065927987302604;-0.12962748000942526;-0.2828924251885807;0.36294313096829356;-0.08057614147443903;0.6728467002173071;0.250470933024733;0.48417481997150347;0.4007027813058839;0.4113866950677654;0.7645529195527088;1.213971983337844;0.20413756615007017;0.8225036263261689;0.2939088126275351
D_2min;12.4;0.4527213606261862;-0.2491786387322188;-0.12083336561201463;-0.2893828841815216;0.3751779770108321;-0.08184003815470753;0.6773704812485599;0.24925189981021845;0.4899297484901801;0.3872276072398888;0.4273701928385645;0.7527276461900971;1.2171432215114812;0.18981160013638565;0.8264293156016711;0.28292112221953314
D_2min;12.5;0.4578527224321549;-0.2579495331466708;-0.11429388907713545;-0.29609280225948265;0.38387695887364615;-0.0837269246555179;0.6745683769316955;0.24453574825789115;0.4926527222571231;0.37303758865738956;0.4379383763440039;0.736906440120646;1.2163922868775288;0.17457515145231195;0.8268733492066298;0.27190781782090934
D_2min;12.6;0.4601397345520306;-0.2667511601787016;-0.11016323437750764;-0.3029326048735115;0.388902193086448;-0.08626582139495387;0.6665232978024305;0.2372421302123211;0.49261152707040345;0.35834449115521405;0.443455743333935;0.7186891078401247;1.2120657207492007;0.1587937888764177;0.8242965093900159;0.2609220560760752
D_2min;12.7;0.4597231599036782;-0.275330659946488;-0.10849952221167136;-0.3097930427037614;0.3902341198386541;-0.08943745138475023;0.6545531560291913;0.22795001483703814;0.4902033114340316;0.34315182905994135;0.444387337978549;0.6988993271130406;1.2047166267037541;0.1428433462506833;0.8193203249724235;0.2498939794704178
D_2min;12.8;0.45649123361127675;-0.28349123752963923;-0.10953689840230574;-0.31660286072562016;0.3876489911171088;-0.0933125278409781;0.6416259914685254;0.21789087142209418;0.4856035696563712;0.3276852830567325;0.44107478204169226;0.6798664579704496;1.1945433012622777;0.1270727636701139;0.8123035720507881;0.2387211113369201
D_2min;12.9;0.45037457256918767;-0.29103414631948965;-0.11347384740894562;-0.3232866071331033;0.38098987076736;-0.09794599786387792;0.6307124088668434;0.20832134408435454;0.47901833805909355;0.31219250965962697;0.43393340330265495;0.663936388655511;1.181791728953705;0.11184745075298519;0.8036327031296864;0.22737267171905629
D_2min;13.0;0.4415612745812405;-0.2979722417144286;-0.12010607315059829;-0.32981839319740924;0.3705094928950903;-0.10326398764850886;0.6210834335450617;0.19898746009036916;0.4705793115452135;0.2967397866159347;0.4231520064274932;0.6505400870449121;1.1666881564403164;0.09722211424754246;0.7933818590269333;0.21595392444940398
D_2min;13.1;0.4302561134726286;-0.3044061070787487;-0.1291453862736507;-0.33620242806282796;0.35651741534441506;-0.10917465054929831;0.6109565210516585;0.1891909871150288;0.46033024266764144;0.28133279901019215;0.4087574696952192;0.6382878431354015;1.1493574385973462;0.08311387022775296;0.7814551849062656;0.2045560043136696
D_2min;13.2;0.41680691939276837;-0.3103316850798583;-0.1402587473850474;-0.3423915044579484;0.3395175336664593;-0.11554309324394563;0.5995953221650092;0.17873429389019968;0.4485207816347305;0.2660944225627073;0.3912109358521487;0.6266213945744354;1.1302071081227512;0.06964792095646732;0.7680332701878703;0.19347920585003742
D_2min;13.3;0.4016073850156934;-0.3157722811686421;-0.15305047896012702;-0.3483443275147904;0.3200877835706937;-0.12221404111533918;0.5858395821632563;0.16725234606160644;0.43540133602599873;0.2511151058875507;0.3709771517048228;0.6146301997865091;1.109657008529977;0.056908374044191135;0.7532673157274345;0.18303805510408555
D_2min;13.4;0.38470947338855055;-0.3208030101484862;-0.16740265089141815;-0.3540780389902327;0.2983082777820929;-0.1291609286460833;0.5687830001881631;0.15436335806776658;0.4209469657641538;0.2363060247601778;0.3479729535762246;0.6015020614548181;1.0877162256541348;0.04479272135694767;0.7370664863229539;0.17305860072699275
D_2min;13.5;0.3661255529119769;-0.3254731031393625;-0.18325672213969035;-0.35960542212849234;0.27421679503977536;-0.1363755384149652;0.5481898387775237;0.13996658226040282;0.405133707281653;0.22159008470742325;0.3221664398969857;0.5869200622090665;1.0643830355361166;0.03323318981495493;0.7193727593909918;0.16330498603135712
D_2min;13.6;0.34595977534066513;-0.32991559465377573;-0.20039829096703698;-0.36495895459340844;0.247990482062308;-0.14380854630163586;0.5225760070415841;0.12345410823196801;0.3879176863944114;0.2068094751912879;0.29347035477927363;0.5695541067699788;1.03964990325444;0.022031983655403486;0.7000148998462112;0.1535666755797136
D_2min;13.7;0.3242961995385709;-0.33426650605287467;-0.21863258829229082;-0.3701761351787587;0.2197801253292937;-0.1514180931889415;0.49049903367067493;0.10422736480752981;0.36923659718079094;0.19179556279462862;0.2617680304132932;0.5481011436670284;1.0134837780454546;0.010979117941452898;0.6788103158581835;0.14361122011395988
D_2min;13.8;0.30146864172116494;-0.3384583873811531;-0.23769915243034845;-0.375190879709125;0.19017106741038425;-0.15908237084709853;0.45337842092793856;0.08304807305186745;0.349393899337338;0.1767368361094892;0.22788469578172688;0.5235687046195201;0.9863374260699151;0.00031290080586732216;0.6560522100893609;0.1336277835531714
D_2min;13.9;0.27792788509258326;-0.3423760898329098;-0.2572640580134973;-0.3799050347249109;0.1599489803923433;-0.16664129778200198;0.4134397937617278;0.06108362995069605;0.32882515814256585;0.16192440626915783;0.19300141009114036;0.4975891525341831;0.9588400602145839;-0.00960732292570654;0.6321749610243677;0.12394366681386604
D_2min;14.0;0.2538913128428115;-0.3459413323965448;-0.2771982002297211;-0.38426913630933157;0.12949684846607568;-0.17401757313827027;0.37211176411743985;0.03903750195485234;0.30775664151500415;0.14752556011649265;0.15772828242089432;0.4712281392262838;0.9313391682348895;-0.018561168966948927;0.6074558465620488;0.11471080012037937
D_2min;14.1;0.2295946328004348;-0.3490556859919858;-0.297373804001273;-0.38822501591171754;0.09923475078055688;-0.18112867661438514;0.3311615508886865;0.017768958377579303;0.28644549714018375;0.13374026263480765;0.12276472215355128;0.4458196765124729;0.904219571556502;-0.02628769345831472;0.5822165498425509;0.10611526414261441
D_2min;14.2;0.2054573433165272;-0.35169318724246157;-0.3174050339991421;-0.391709975113125;0.06989126840215754;-0.1878306485697374;0.2920770721256183;-0.0018866918459217175;0.2652443520182395;0.12072502750098035;0.08913360504017653;0.42231924878120175;0.8779895544771588;-0.03260786398762594;0.5567405380786354;0.09832536679652293
D_2min;14.3;0.1818358861321725;-0.353867223698634;-0.33693476796959665;-0.39468520328025214;0.042074986612849585;-0.19400311447815355;0.25577289016768123;-0.019377293427910836;0.24442852087664946;0.10856302311813515;0.05764891934854255;0.40123132234005787;0.8530541359781809;-0.03743639954568412;0.5312250737983302;0.09143700931997767
D_2min;14.4;0.15920672160356197;-0.3555220192545754;-0.3555528544623101;-0.39707070457408555;0.016635357831122022;-0.19947963648771516;0.2242400890434526;-0.03362016542117985;0.22440766170272752;0.09746706820442341;0.029505252588382547;0.3839054923358658;0.8299865698052624;-0.0405274810201135;0.5060136300078693;0.08568225364415216
D_2min;14.5;0.1380256327385636;-0.35661080891484254;-0.37285976960597544;-0.398792968007573;-0.0056284837549753775;-0.20410529664986576;0.19935570946948822;-0.04359600753426207;0.2055775042792547;0.08763315454448684;0.005846275178329918;0.3716032122662831;0.8093350698199222;-0.041661927037220714;0.48143703924415426;0.08127927045927308
D_2min;14.6;0.1182194731719326;-0.3571656933293861;-0.38892867005536225;-0.3998908331387705;-0.024883594679783627;-0.20791225768248456;0.1806249000709954;-0.04960102919305687;0.18786039507687669;0.07898931755950045;-0.013579245189168532;0.3639530092110004;0.7910341097779785;-0.04092475793633277;0.45749576597188835;0.07816453640519327
D_2min;14.7;0.09956095766235507;-0.35722969425610795;-0.40398594234551055;-0.400432118971886;-0.04156421120447895;-0.21098347440010823;0.16693642453649726;-0.05228287945208265;0.17103891418421746;0.07140101168763824;-0.029436934422408356;0.36018527318909577;0.7748288861213064;-0.03847041449092803;0.4340967164106395;0.07620698002240545
D_2min;14.8;0.08191161799791935;-0.35686714423516364;-0.41812516527124544;-0.4004748968020486;-0.0560195176534215;-0.21339379075664056;0.15743713393785352;-0.05213773601096605;0.15500735111099395;0.06474177313191198;-0.04211869309321692;0.3596371572398498;0.760592128664455;-0.03447448131144615;0.41121034205454343;0.07528591251988548
D_2min;14.9;0.0650571564169713;-0.3561556669386192;-0.43150676385612385;-0.4000945413046617;-0.06873585582790831;-0.2152451905632109;0.1509364395230932;-0.04984895797547306;0.13959015683002285;0.058843360379672305;-0.052215270292018445;0.36141147261490403;0.7481048437355957;-0.02916102470552495;0.38875719189483426;0.07524086478701175
D_2min;15.0;0.048914240011788124;-0.35510470365313385;-0.44424823546597736;-0.39932407322155417;-0.07985657524808865;-0.21656306729552188;0.14696784300153176;-0.045709850763503646;0.12468528732491357;0.05365970366475992;-0.06006557829136483;0.36521465962373867;0.7372245759149703;-0.022593699663956635;0.36670801649731644;0.07602749115729956
